Tag:	25532
Reference:	empty
Coast Distance (km): 	0.0
Estimation Time Delay (days): 	0.0

CNES Day	Lon	Lat	LonCor	LatCor	Delay
18440.339	-53.933	5.744	-53.933	5.744	0
18440.464	-53.937	5.742	-53.937	5.742	0
18440.589	-53.942	5.740	-53.941	5.741	0
18440.714	-53.946	5.738	-53.943	5.740	0
18440.839	-53.943	5.742	-53.938	5.748	0
18440.964	-53.940	5.742	-53.931	5.752	0
18441.089	-53.936	5.742	-53.923	5.756	0
18441.214	-53.933	5.742	-53.914	5.762	0
18441.339	-53.934	5.753	-53.909	5.779	0
18441.464	-53.936	5.764	-53.903	5.798	0
18441.589	-53.937	5.775	-53.897	5.817	0
18441.714	-53.938	5.786	-53.889	5.837	0
18441.839	-53.940	5.798	-53.880	5.859	0
18441.964	-53.940	5.807	-53.870	5.879	0
18442.089	-53.948	5.828	-53.867	5.913	0
18442.214	-53.959	5.852	-53.865	5.950	0
18442.339	-53.970	5.876	-53.862	5.987	0
18442.464	-54.005	5.926	-53.884	6.052	0
18442.589	-54.043	5.982	-53.906	6.124	0
18442.714	-54.083	6.041	-53.934	6.198	0
18442.839	-54.125	6.103	-53.966	6.276	0
18442.964	-54.170	6.170	-54.004	6.358	0
18443.089	-54.214	6.238	-54.043	6.441	0
18443.214	-54.255	6.309	-54.081	6.526	0
18443.339	-54.289	6.385	-54.115	6.617	0
18443.464	-54.306	6.426	-54.132	6.672	0
18443.589	-54.323	6.466	-54.150	6.726	0
18443.714	-54.340	6.507	-54.168	6.780	0
18443.839	-54.356	6.547	-54.187	6.832	0
18443.964	-54.380	6.588	-54.211	6.884	0
18444.089	-54.403	6.624	-54.236	6.929	0
18444.214	-54.424	6.660	-54.257	6.972	0
18444.339	-54.442	6.695	-54.274	7.014	0
18444.464	-54.464	6.730	-54.294	7.053	0
18444.589	-54.486	6.765	-54.313	7.092	0
18444.714	-54.507	6.800	-54.332	7.129	0
18444.839	-54.529	6.835	-54.351	7.164	0
18444.964	-54.524	6.885	-54.342	7.214	0
18445.089	-54.521	6.942	-54.334	7.269	0
18445.214	-54.518	7.000	-54.323	7.323	0
18445.339	-54.515	7.059	-54.310	7.377	0
18445.464	-54.534	7.133	-54.316	7.444	0
18445.589	-54.552	7.206	-54.318	7.508	0
18445.714	-54.568	7.278	-54.314	7.568	0
18445.839	-54.585	7.352	-54.307	7.627	0
18445.964	-54.611	7.433	-54.306	7.692	0
18446.089	-54.653	7.524	-54.319	7.762	0
18446.214	-54.697	7.615	-54.331	7.829	0
18446.339	-54.745	7.706	-54.344	7.895	0
18446.464	-54.762	7.822	-54.324	7.982	0
18446.589	-54.780	7.938	-54.300	8.065	0
18446.714	-54.801	8.048	-54.278	8.141	0
18446.839	-54.837	8.152	-54.269	8.209	0
18446.964	-54.856	8.264	-54.242	8.282	0
18447.089	-54.875	8.376	-54.216	8.352	0
18447.214	-54.894	8.488	-54.192	8.421	0
18447.339	-54.913	8.600	-54.170	8.487	0
18447.464	-54.932	8.712	-54.152	8.551	0
18447.589	-54.930	8.821	-54.117	8.610	0
18447.714	-54.919	8.929	-54.079	8.667	0
18447.839	-54.908	9.038	-54.047	8.723	0
18447.964	-54.897	9.149	-54.021	8.781	0
18448.089	-54.886	9.260	-54.001	8.839	0
18448.214	-54.876	9.371	-53.987	8.897	0
18448.339	-54.865	9.482	-53.976	8.956	0
18448.464	-54.861	9.595	-53.977	9.018	0
18448.589	-54.844	9.706	-53.965	9.080	0
18448.714	-54.808	9.810	-53.936	9.138	0
18448.839	-54.771	9.911	-53.906	9.197	0
18448.964	-54.734	10.008	-53.878	9.258	0
18449.089	-54.699	10.102	-53.854	9.319	0
18449.214	-54.665	10.196	-53.831	9.385	0
18449.339	-54.631	10.288	-53.810	9.453	0
18449.464	-54.596	10.376	-53.788	9.520	0
18449.589	-54.561	10.455	-53.765	9.583	0
18449.714	-54.526	10.533	-53.743	9.646	0
18449.839	-54.496	10.612	-53.724	9.713	0
18449.964	-54.473	10.691	-53.711	9.781	0
18450.089	-54.455	10.769	-53.700	9.851	0
18450.214	-54.437	10.847	-53.687	9.921	0
18450.339	-54.420	10.925	-53.672	9.992	0
18450.464	-54.404	11.004	-53.655	10.065	0
18450.589	-54.399	11.088	-53.648	10.142	0
18450.714	-54.395	11.172	-53.638	10.220	0
18450.839	-54.392	11.256	-53.625	10.299	0
18450.964	-54.391	11.342	-53.612	10.377	0
18451.089	-54.394	11.428	-53.600	10.456	0
18451.214	-54.395	11.514	-53.584	10.533	0
18451.339	-54.393	11.599	-53.563	10.609	0
18451.464	-54.398	11.685	-53.547	10.685	0
18451.589	-54.415	11.774	-53.543	10.765	0
18451.714	-54.417	11.859	-53.521	10.840	0
18451.839	-54.415	11.944	-53.495	10.913	0
18451.964	-54.432	12.033	-53.487	10.991	0
18452.089	-54.449	12.121	-53.480	11.069	0
18452.214	-54.467	12.210	-53.473	11.147	0
18452.339	-54.485	12.299	-53.465	11.225	0
18452.464	-54.507	12.387	-53.462	11.305	0
18452.589	-54.521	12.477	-53.450	11.388	0
18452.714	-54.520	12.565	-53.423	11.470	0
18452.839	-54.517	12.650	-53.395	11.551	0
18452.964	-54.515	12.730	-53.368	11.627	0
18453.089	-54.518	12.804	-53.347	11.701	0
18453.214	-54.520	12.878	-53.326	11.775	0
18453.339	-54.522	12.951	-53.306	11.849	0
18453.464	-54.520	13.023	-53.284	11.922	0
18453.589	-54.510	13.090	-53.254	11.992	0
18453.714	-54.499	13.158	-53.225	12.062	0
18453.839	-54.490	13.225	-53.197	12.132	0
18453.964	-54.480	13.294	-53.170	12.205	0
18454.089	-54.475	13.362	-53.150	12.276	0
18454.214	-54.471	13.430	-53.131	12.346	0
18454.339	-54.465	13.499	-53.112	12.418	0
18454.464	-54.447	13.572	-53.081	12.494	0
18454.589	-54.428	13.643	-53.049	12.566	0
18454.714	-54.408	13.712	-53.019	12.637	0
18454.839	-54.388	13.780	-52.990	12.706	0
18454.964	-54.367	13.847	-52.962	12.775	0
18455.089	-54.346	13.912	-52.934	12.841	0
18455.214	-54.326	13.976	-52.908	12.907	0
18455.339	-54.302	14.038	-52.881	12.971	0
18455.464	-54.276	14.098	-52.853	13.033	0
18455.589	-54.244	14.153	-52.821	13.089	0
18455.714	-54.213	14.206	-52.788	13.144	0
18455.839	-54.181	14.259	-52.757	13.198	0
18455.964	-54.143	14.314	-52.719	13.254	0
18456.089	-54.104	14.367	-52.681	13.309	0
18456.214	-54.064	14.419	-52.644	13.363	0
18456.339	-54.025	14.468	-52.607	13.415	0
18456.464	-53.984	14.512	-52.570	13.460	0
18456.589	-53.945	14.564	-52.534	13.514	0
18456.714	-53.905	14.614	-52.498	13.565	0
18456.839	-53.866	14.665	-52.464	13.619	0
18456.964	-53.829	14.722	-52.433	13.676	0
18457.089	-53.793	14.780	-52.405	13.736	0
18457.214	-53.757	14.836	-52.376	13.792	0
18457.339	-53.720	14.888	-52.345	13.846	0
18457.464	-53.675	14.929	-52.308	13.888	0
18457.589	-53.641	14.995	-52.281	13.955	0
18457.714	-53.620	15.073	-52.267	14.033	0
18457.839	-53.601	15.148	-52.256	14.109	0
18457.964	-53.583	15.223	-52.244	14.185	0
18458.089	-53.565	15.297	-52.232	14.261	0
18458.214	-53.548	15.370	-52.219	14.335	0
18458.339	-53.532	15.442	-52.207	14.409	0
18458.464	-53.522	15.510	-52.198	14.478	0
18458.589	-53.517	15.568	-52.195	14.538	0
18458.714	-53.509	15.634	-52.186	14.605	0
18458.839	-53.498	15.702	-52.174	14.675	0
18458.964	-53.488	15.771	-52.161	14.745	0
18459.089	-53.480	15.834	-52.149	14.809	0
18459.214	-53.473	15.897	-52.136	14.873	0
18459.339	-53.465	15.960	-52.121	14.937	0
18459.464	-53.456	16.023	-52.105	15.001	0
18459.589	-53.446	16.087	-52.085	15.066	0
18459.714	-53.428	16.157	-52.057	15.136	0
18459.839	-53.411	16.227	-52.028	15.207	0
18459.964	-53.395	16.296	-52.002	15.278	0
18460.089	-53.381	16.366	-51.975	15.348	0
18460.214	-53.367	16.436	-51.948	15.419	0
18460.339	-53.353	16.506	-51.922	15.489	0
18460.464	-53.342	16.576	-51.898	15.559	0
18460.589	-53.338	16.647	-51.880	15.629	0
18460.714	-53.346	16.715	-51.876	15.697	0
18460.839	-53.338	16.767	-51.856	15.749	0
18460.964	-53.330	16.818	-51.837	15.801	0
18461.089	-53.323	16.869	-51.818	15.853	0
18461.214	-53.315	16.920	-51.800	15.906	0
18461.339	-53.307	16.972	-51.782	15.959	0
18461.464	-53.299	17.023	-51.765	16.012	0
18461.589	-53.291	17.074	-51.749	16.066	0
18461.714	-53.283	17.125	-51.734	16.120	0
18461.839	-53.276	17.177	-51.719	16.175	0
18461.964	-53.268	17.228	-51.704	16.230	0
18462.089	-53.260	17.279	-51.691	16.286	0
18462.214	-53.252	17.330	-51.678	16.342	0
18462.339	-53.244	17.382	-51.665	16.398	0
18462.464	-53.236	17.433	-51.654	16.454	0
18462.589	-53.228	17.484	-51.642	16.511	0
18462.714	-53.221	17.535	-51.632	16.569	0
18462.839	-53.213	17.586	-51.623	16.627	0
18462.964	-53.171	17.627	-51.581	16.676	0
18463.089	-53.129	17.668	-51.540	16.726	0
18463.214	-53.087	17.709	-51.501	16.777	0
18463.339	-53.045	17.749	-51.463	16.830	0
18463.464	-53.038	17.809	-51.463	16.902	0
18463.589	-53.031	17.869	-51.465	16.976	0
18463.714	-53.024	17.929	-51.467	17.049	0
18463.839	-53.017	17.990	-51.471	17.123	0
18463.964	-53.010	18.050	-51.474	17.198	0
18464.089	-53.003	18.110	-51.478	17.272	0
18464.214	-52.996	18.170	-51.481	17.346	0
18464.339	-52.989	18.230	-51.483	17.420	0
18464.464	-52.982	18.290	-51.485	17.494	0
18464.589	-52.975	18.350	-51.486	17.568	0
18464.714	-52.968	18.410	-51.486	17.641	0
18464.839	-52.961	18.470	-51.484	17.714	0
18464.964	-52.954	18.530	-51.481	17.787	0
18465.089	-52.947	18.590	-51.476	17.859	0
18465.214	-52.940	18.650	-51.470	17.930	0
18465.339	-52.933	18.710	-51.462	18.001	0
18465.464	-52.926	18.770	-51.453	18.071	0
18465.589	-52.919	18.830	-51.444	18.140	0
18465.714	-52.913	18.891	-51.433	18.209	0
18465.839	-52.906	18.951	-51.421	18.277	0
18465.964	-52.899	19.011	-51.409	18.344	0
18466.089	-52.892	19.071	-51.397	18.411	0
18466.214	-52.885	19.131	-51.385	18.476	0
18466.339	-52.878	19.191	-51.372	18.541	0
18466.464	-52.871	19.251	-51.360	18.605	0
18466.589	-52.866	19.294	-51.350	18.650	0
18466.714	-52.858	19.351	-51.337	18.709	0
18466.839	-52.850	19.412	-51.323	18.770	0
18466.964	-52.843	19.476	-51.311	18.834	0
18467.089	-52.838	19.545	-51.303	18.900	0
18467.214	-52.836	19.615	-51.296	18.967	0
18467.339	-52.833	19.687	-51.290	19.034	0
18467.464	-52.833	19.765	-51.287	19.106	0
18467.589	-52.834	19.848	-51.285	19.182	0
18467.714	-52.835	19.932	-51.283	19.257	0
18467.839	-52.836	20.017	-51.281	19.332	0
18467.964	-52.839	20.101	-51.279	19.405	0
18468.089	-52.836	20.182	-51.272	19.476	0
18468.214	-52.835	20.264	-51.265	19.546	0
18468.339	-52.835	20.344	-51.258	19.615	0
18468.464	-52.836	20.419	-51.251	19.679	0
18468.589	-52.830	20.493	-51.236	19.743	0
18468.714	-52.824	20.569	-51.220	19.811	0
18468.839	-52.817	20.651	-51.202	19.884	0
18468.964	-52.814	20.730	-51.189	19.957	0
18469.089	-52.810	20.797	-51.174	20.018	0
18469.214	-52.806	20.863	-51.160	20.080	0
18469.339	-52.802	20.928	-51.147	20.142	0
18469.464	-52.809	21.004	-51.145	20.215	0
18469.589	-52.817	21.082	-51.145	20.292	0
18469.714	-52.826	21.159	-51.147	20.369	0
18469.839	-52.821	21.227	-51.135	20.437	0
18469.964	-52.811	21.291	-51.119	20.500	0
18470.089	-52.798	21.355	-51.100	20.565	0
18470.214	-52.791	21.424	-51.088	20.634	0
18470.339	-52.789	21.496	-51.083	20.707	0
18470.464	-52.812	21.581	-51.104	20.791	0
18470.589	-52.797	21.645	-51.087	20.854	0
18470.714	-52.762	21.700	-51.048	20.909	0
18470.839	-52.730	21.758	-51.014	20.965	0
18470.964	-52.700	21.820	-50.981	21.026	0
18471.089	-52.671	21.882	-50.950	21.087	0
18471.214	-52.642	21.946	-50.920	21.150	0
18471.339	-52.613	22.012	-50.890	21.214	0
18471.464	-52.589	22.081	-50.865	21.281	0
18471.589	-52.565	22.149	-50.842	21.347	0
18471.714	-52.543	22.217	-50.818	21.413	0
18471.839	-52.520	22.285	-50.795	21.479	0
18471.964	-52.497	22.353	-50.771	21.544	0
18472.089	-52.474	22.420	-50.747	21.608	0
18472.214	-52.452	22.487	-50.723	21.672	0
18472.339	-52.436	22.557	-50.705	21.739	0
18472.464	-52.428	22.630	-50.697	21.807	0
18472.589	-52.418	22.700	-50.684	21.874	0
18472.714	-52.410	22.769	-50.674	21.939	0
18472.839	-52.401	22.837	-50.662	22.003	0
18472.964	-52.397	22.909	-50.655	22.070	0
18473.089	-52.392	22.980	-50.648	22.136	0
18473.214	-52.388	23.051	-50.640	22.203	0
18473.339	-52.384	23.122	-50.632	22.270	0
18473.464	-52.381	23.191	-50.626	22.335	0
18473.589	-52.383	23.256	-50.623	22.396	0
18473.714	-52.386	23.320	-50.622	22.456	0
18473.839	-52.389	23.383	-50.621	22.516	0
18473.964	-52.398	23.448	-50.624	22.579	0
18474.089	-52.409	23.515	-50.630	22.643	0
18474.214	-52.420	23.582	-50.634	22.707	0
18474.339	-52.430	23.648	-50.636	22.771	0
18474.464	-52.444	23.716	-50.641	22.837	0
18474.589	-52.454	23.778	-50.641	22.897	0
18474.714	-52.464	23.840	-50.640	22.957	0
18474.839	-52.464	23.901	-50.626	23.016	0
18474.964	-52.465	23.964	-50.613	23.077	0
18475.089	-52.470	24.029	-50.603	23.140	0
18475.214	-52.477	24.094	-50.595	23.202	0
18475.339	-52.488	24.160	-50.591	23.264	0
18475.464	-52.496	24.226	-50.582	23.324	0
18475.589	-52.491	24.287	-50.561	23.380	0
18475.714	-52.485	24.349	-50.540	23.435	0
18475.839	-52.481	24.412	-50.520	23.491	0
18475.964	-52.482	24.479	-50.507	23.549	0
18476.089	-52.489	24.549	-50.502	23.611	0
18476.214	-52.495	24.618	-50.498	23.670	0
18476.339	-52.501	24.687	-50.496	23.729	0
18476.464	-52.501	24.751	-50.489	23.783	0
18476.589	-52.484	24.814	-50.466	23.834	0
18476.714	-52.473	24.877	-50.451	23.888	0
18476.839	-52.463	24.941	-50.439	23.942	0
18476.964	-52.452	25.004	-50.426	23.997	0
18477.089	-52.440	25.069	-50.415	24.054	0
18477.214	-52.428	25.134	-50.406	24.112	0
18477.339	-52.419	25.197	-50.399	24.171	0
18477.464	-52.407	25.262	-50.389	24.232	0
18477.589	-52.388	25.326	-50.372	24.294	0
18477.714	-52.391	25.385	-50.379	24.352	0
18477.839	-52.398	25.442	-50.390	24.411	0
18477.964	-52.406	25.499	-50.401	24.469	0
18478.089	-52.416	25.554	-50.414	24.528	0
18478.214	-52.427	25.609	-50.428	24.587	0
18478.339	-52.443	25.662	-50.445	24.645	0
18478.464	-52.477	25.706	-50.482	24.694	0
18478.589	-52.486	25.762	-50.490	24.756	0
18478.714	-52.504	25.813	-50.509	24.814	0
18478.839	-52.524	25.863	-50.528	24.870	0
18478.964	-52.545	25.913	-50.548	24.927	0
18479.089	-52.564	25.964	-50.566	24.985	0
18479.214	-52.583	26.015	-50.583	25.043	0
18479.339	-52.601	26.067	-50.601	25.101	0
18479.464	-52.618	26.118	-50.616	25.160	0
18479.589	-52.607	26.178	-50.601	25.225	0
18479.714	-52.596	26.237	-50.587	25.291	0
18479.839	-52.585	26.296	-50.574	25.358	0
18479.964	-52.572	26.356	-50.559	25.424	0
18480.089	-52.560	26.416	-50.545	25.490	0
18480.214	-52.547	26.476	-50.532	25.555	0
18480.339	-52.535	26.536	-50.519	25.620	0
18480.464	-52.522	26.595	-50.507	25.684	0
18480.589	-52.510	26.655	-50.495	25.747	0
18480.714	-52.497	26.715	-50.483	25.809	0
18480.839	-52.484	26.774	-50.472	25.872	0
18480.964	-52.470	26.833	-50.459	25.932	0
18481.089	-52.456	26.892	-50.446	25.992	0
18481.214	-52.442	26.950	-50.432	26.052	0
18481.339	-52.427	27.009	-50.418	26.111	0
18481.464	-52.409	27.067	-50.399	26.169	0
18481.589	-52.387	27.125	-50.375	26.226	0
18481.714	-52.370	27.184	-50.355	26.283	0
18481.839	-52.354	27.243	-50.336	26.341	0
18481.964	-52.343	27.308	-50.322	26.403	0
18482.089	-52.338	27.375	-50.313	26.467	0
18482.214	-52.329	27.441	-50.300	26.530	0
18482.339	-52.319	27.505	-50.284	26.591	0
18482.464	-52.297	27.565	-50.254	26.648	0
18482.589	-52.282	27.633	-50.232	26.713	0
18482.714	-52.305	27.703	-50.252	26.781	0
18482.839	-52.324	27.769	-50.266	26.845	0
18482.964	-52.338	27.832	-50.274	26.908	0
18483.089	-52.349	27.893	-50.277	26.969	0
18483.214	-52.358	27.952	-50.280	27.030	0
18483.339	-52.367	28.011	-50.281	27.092	0
18483.464	-52.370	28.068	-50.277	27.153	0
18483.589	-52.364	28.122	-50.262	27.212	0
18483.714	-52.358	28.175	-50.248	27.270	0
18483.839	-52.352	28.229	-50.234	27.328	0
18483.964	-52.340	28.282	-50.214	27.387	0
18484.089	-52.325	28.337	-50.191	27.446	0
18484.214	-52.309	28.392	-50.168	27.505	0
18484.339	-52.294	28.447	-50.146	27.564	0
18484.464	-52.277	28.503	-50.120	27.622	0
18484.589	-52.252	28.555	-50.087	27.675	0
18484.714	-52.228	28.607	-50.055	27.729	0
18484.839	-52.204	28.658	-50.024	27.784	0
18484.964	-52.179	28.710	-49.993	27.840	0
18485.089	-52.155	28.761	-49.964	27.896	0
18485.214	-52.130	28.813	-49.935	27.952	0
18485.339	-52.106	28.865	-49.907	28.009	0
18485.464	-52.082	28.916	-49.878	28.065	0
18485.589	-52.057	28.968	-49.850	28.120	0
18485.714	-52.033	29.019	-49.821	28.175	0
18485.839	-52.008	29.071	-49.791	28.227	0
18485.964	-51.984	29.123	-49.759	28.278	0
18486.089	-51.960	29.174	-49.726	28.327	0
18486.214	-51.935	29.226	-49.691	28.375	0
18486.339	-51.911	29.277	-49.655	28.421	0
18486.464	-51.886	29.329	-49.618	28.466	0
18486.589	-51.868	29.389	-49.587	28.518	0
18486.714	-51.849	29.448	-49.555	28.568	0
18486.839	-51.831	29.508	-49.522	28.618	0
18486.964	-51.812	29.567	-49.489	28.667	0
18487.089	-51.794	29.626	-49.457	28.716	0
18487.214	-51.776	29.687	-49.425	28.765	0
18487.339	-51.757	29.747	-49.395	28.815	0
18487.464	-51.739	29.807	-49.365	28.865	0
18487.589	-51.716	29.863	-49.330	28.911	0
18487.714	-51.692	29.920	-49.297	28.958	0
18487.839	-51.668	29.976	-49.264	29.005	0
18487.964	-51.644	30.033	-49.233	29.053	0
18488.089	-51.620	30.089	-49.203	29.103	0
18488.214	-51.596	30.145	-49.175	29.154	0
18488.339	-51.573	30.202	-49.147	29.206	0
18488.464	-51.541	30.253	-49.111	29.255	0
18488.589	-51.509	30.305	-49.076	29.306	0
18488.714	-51.478	30.356	-49.042	29.358	0
18488.839	-51.446	30.408	-49.009	29.412	0
18488.964	-51.415	30.459	-48.976	29.469	0
18489.089	-51.398	30.508	-48.961	29.524	0
18489.214	-51.380	30.557	-48.948	29.580	0
18489.339	-51.363	30.606	-48.935	29.638	0
18489.464	-51.346	30.655	-48.923	29.696	0
18489.589	-51.329	30.704	-48.912	29.756	0
18489.714	-51.328	30.751	-48.920	29.813	0
18489.839	-51.327	30.799	-48.929	29.873	0
18489.964	-51.321	30.848	-48.932	29.934	0
18490.089	-51.320	30.897	-48.941	29.995	0
18490.214	-51.317	30.941	-48.950	30.051	0
18490.339	-51.318	30.986	-48.961	30.109	0
18490.464	-51.318	31.030	-48.973	30.167	0
18490.589	-51.308	31.086	-48.971	30.235	0
18490.714	-51.310	31.144	-48.983	30.305	0
18490.839	-51.311	31.198	-48.994	30.370	0
18490.964	-51.312	31.248	-49.003	30.430	0
18491.089	-51.312	31.297	-49.012	30.488	0
18491.214	-51.312	31.345	-49.019	30.545	0
18491.339	-51.312	31.393	-49.026	30.601	0
18491.464	-51.300	31.450	-49.017	30.665	0
18491.589	-51.282	31.511	-49.002	30.734	0
18491.714	-51.267	31.569	-48.989	30.800	0
18491.839	-51.253	31.627	-48.978	30.867	0
18491.964	-51.229	31.687	-48.957	30.937	0
18492.089	-51.207	31.733	-48.938	30.994	0
18492.214	-51.183	31.785	-48.917	31.059	0
18492.339	-51.158	31.838	-48.897	31.125	0
18492.464	-51.138	31.885	-48.884	31.186	0
18492.589	-51.123	31.931	-48.875	31.247	0
18492.714	-51.102	31.988	-48.861	31.319	0
18492.839	-51.093	32.027	-48.860	31.372	0
18492.964	-51.094	32.055	-48.870	31.415	0
18493.089	-51.096	32.083	-48.881	31.459	0
18493.214	-51.098	32.112	-48.893	31.503	0
18493.339	-51.099	32.141	-48.904	31.547	0
18493.464	-51.105	32.172	-48.920	31.593	0
18493.589	-51.119	32.208	-48.945	31.644	0
18493.714	-51.132	32.245	-48.968	31.695	0
18493.839	-51.128	32.292	-48.971	31.755	0
18493.964	-51.125	32.339	-48.972	31.814	0
18494.089	-51.121	32.385	-48.972	31.873	0
18494.214	-51.117	32.432	-48.970	31.931	0
18494.339	-51.113	32.478	-48.967	31.988	0
18494.464	-51.110	32.525	-48.963	32.045	0
18494.589	-51.116	32.575	-48.969	32.105	0
18494.714	-51.111	32.622	-48.961	32.161	0
18494.839	-51.111	32.669	-48.957	32.217	0
18494.964	-51.111	32.716	-48.953	32.272	0
18495.089	-51.111	32.763	-48.947	32.327	0
18495.214	-51.111	32.810	-48.941	32.381	0
18495.339	-51.111	32.858	-48.935	32.435	0
18495.464	-51.111	32.905	-48.927	32.488	0
18495.589	-51.083	32.936	-48.885	32.525	0
18495.714	-51.054	32.968	-48.842	32.561	0
18495.839	-51.025	32.999	-48.799	32.596	0
18495.964	-50.996	33.030	-48.755	32.631	0
18496.089	-50.967	33.061	-48.712	32.665	0
18496.214	-50.938	33.092	-48.667	32.699	0
18496.339	-50.958	33.147	-48.681	32.754	0
18496.464	-50.954	33.198	-48.667	32.806	0
18496.589	-50.939	33.241	-48.640	32.849	0
18496.714	-50.957	33.304	-48.652	32.912	0
18496.839	-50.974	33.368	-48.666	32.975	0
18496.964	-50.991	33.433	-48.681	33.037	0
18497.089	-51.007	33.497	-48.699	33.098	0
18497.214	-51.023	33.561	-48.718	33.158	0
18497.339	-51.032	33.627	-48.736	33.218	0
18497.464	-51.023	33.694	-48.735	33.277	0
18497.589	-51.002	33.761	-48.725	33.336	0
18497.714	-50.982	33.829	-48.720	33.393	0
18497.839	-50.963	33.894	-48.720	33.446	0
18497.964	-50.943	33.959	-48.725	33.496	0
18498.089	-50.923	34.023	-48.733	33.546	0
18498.214	-50.901	34.089	-48.743	33.595	0
18498.339	-50.882	34.158	-48.760	33.646	0
18498.464	-50.869	34.216	-48.784	33.686	0
18498.589	-50.845	34.268	-48.798	33.719	0
18498.714	-50.821	34.321	-48.813	33.752	0
18498.839	-50.795	34.374	-48.828	33.785	0
18498.964	-50.769	34.428	-48.840	33.818	0
18499.089	-50.697	34.491	-48.795	33.860	0
18499.214	-50.624	34.555	-48.750	33.901	0
18499.339	-50.552	34.618	-48.703	33.941	0
18499.464	-50.479	34.680	-48.653	33.979	0
18499.589	-50.416	34.740	-48.612	34.015	0
18499.714	-50.351	34.805	-48.567	34.054	0
