Tag:	25530
Reference:	TURT10
Coast Distance (km): 	0.0
Estimation Time Delay (days): 	0.0

CNES Day	Lon	Lat	LonCor	LatCor	Delay
18448.344	-53.935	5.745	-53.935	5.745	0
18448.469	-53.948	5.745	-54.922	4.774	0
18448.594	-53.944	5.744	-54.918	4.773	0
18448.719	-53.941	5.744	-54.914	4.773	0
18448.844	-53.931	5.744	-54.904	4.774	0
18448.969	-53.913	5.801	-54.887	4.830	0
18449.094	-53.896	5.857	-54.869	4.887	0
18449.219	-53.878	5.914	-54.852	4.943	0
18449.344	-53.861	5.970	-54.839	4.988	0
18449.469	-53.843	6.027	-54.824	5.031	0
18449.594	-53.826	6.083	-54.807	5.071	0
18449.719	-53.836	6.161	-54.818	5.132	0
18449.844	-53.844	6.260	-54.825	5.212	0
18449.969	-53.839	6.352	-54.816	5.286	0
18450.094	-53.833	6.443	-54.802	5.360	0
18450.219	-53.846	6.542	-54.804	5.442	0
18450.344	-53.884	6.648	-54.826	5.533	0
18450.469	-53.866	6.738	-54.788	5.610	0
18450.594	-53.847	6.828	-54.745	5.684	0
18450.719	-53.828	6.917	-54.697	5.757	0
18450.844	-53.835	7.003	-54.672	5.825	0
18450.969	-53.845	7.090	-54.646	5.893	0
18451.094	-53.897	7.165	-54.658	5.950	0
18451.219	-53.951	7.241	-54.670	6.007	0
18451.344	-54.008	7.317	-54.681	6.064	0
18451.469	-54.066	7.394	-54.692	6.121	0
18451.594	-54.127	7.471	-54.702	6.179	0
18451.719	-54.193	7.549	-54.716	6.237	0
18451.844	-54.266	7.655	-54.735	6.321	0
18451.969	-54.342	7.748	-54.757	6.391	0
18452.094	-54.408	7.846	-54.769	6.464	0
18452.219	-54.474	7.949	-54.780	6.540	0
18452.344	-54.540	8.051	-54.791	6.616	0
18452.469	-54.599	8.159	-54.796	6.698	0
18452.594	-54.660	8.266	-54.802	6.778	0
18452.719	-54.733	8.365	-54.821	6.848	0
18452.844	-54.814	8.458	-54.851	6.914	0
18452.969	-54.823	8.598	-54.811	7.024	0
18453.094	-54.802	8.716	-54.744	7.114	0
18453.219	-54.772	8.827	-54.674	7.197	0
18453.344	-54.740	8.933	-54.605	7.278	0
18453.469	-54.706	9.034	-54.539	7.355	0
18453.594	-54.673	9.137	-54.479	7.434	0
18453.719	-54.641	9.240	-54.425	7.515	0
18453.844	-54.605	9.341	-54.374	7.594	0
18453.969	-54.561	9.432	-54.319	7.664	0
18454.094	-54.504	9.504	-54.255	7.717	0
18454.219	-54.451	9.574	-54.200	7.768	0
18454.344	-54.421	9.636	-54.173	7.813	0
18454.469	-54.382	9.701	-54.138	7.863	0
18454.594	-54.342	9.765	-54.107	7.912	0
18454.719	-54.303	9.828	-54.082	7.964	0
18454.844	-54.261	9.892	-54.057	8.016	0
18454.969	-54.222	9.957	-54.039	8.073	0
18455.094	-54.182	10.024	-54.022	8.132	0
18455.219	-54.142	10.086	-54.007	8.188	0
18455.344	-54.104	10.146	-53.997	8.244	0
18455.469	-54.055	10.220	-53.978	8.314	0
18455.594	-54.009	10.295	-53.963	8.385	0
18455.719	-53.972	10.368	-53.954	8.454	0
18455.844	-53.938	10.439	-53.947	8.523	0
18455.969	-53.906	10.511	-53.939	8.592	0
18456.094	-53.877	10.578	-53.931	8.656	0
18456.219	-53.848	10.646	-53.918	8.721	0
18456.344	-53.818	10.715	-53.902	8.785	0
18456.469	-53.790	10.783	-53.883	8.848	0
18456.594	-53.774	10.849	-53.873	8.909	0
18456.719	-53.757	10.916	-53.859	8.970	0
18456.844	-53.737	10.981	-53.839	9.028	0
18456.969	-53.722	11.046	-53.820	9.085	0
18457.094	-53.732	11.113	-53.824	9.144	0
18457.219	-53.742	11.180	-53.825	9.202	0
18457.344	-53.752	11.247	-53.824	9.260	0
18457.469	-53.761	11.313	-53.820	9.318	0
18457.594	-53.788	11.381	-53.833	9.376	0
18457.719	-53.824	11.448	-53.853	9.435	0
18457.844	-53.823	11.531	-53.834	9.509	0
18457.969	-53.796	11.623	-53.786	9.593	0
18458.094	-53.777	11.718	-53.746	9.681	0
18458.219	-53.764	11.811	-53.713	9.767	0
18458.344	-53.756	11.902	-53.683	9.853	0
18458.469	-53.760	11.987	-53.668	9.934	0
18458.594	-53.728	12.074	-53.616	10.018	0
18458.719	-53.689	12.161	-53.561	10.104	0
18458.844	-53.653	12.249	-53.510	10.191	0
18458.969	-53.616	12.342	-53.460	10.286	0
18459.094	-53.593	12.401	-53.427	10.348	0
18459.219	-53.573	12.461	-53.399	10.410	0
18459.344	-53.554	12.520	-53.373	10.475	0
18459.469	-53.542	12.583	-53.355	10.542	0
18459.594	-53.537	12.654	-53.344	10.618	0
18459.719	-53.526	12.720	-53.326	10.690	0
18459.844	-53.511	12.781	-53.303	10.756	0
18459.969	-53.503	12.840	-53.287	10.820	0
18460.094	-53.498	12.909	-53.274	10.895	0
18460.219	-53.493	12.978	-53.259	10.970	0
18460.344	-53.487	13.047	-53.242	11.044	0
18460.469	-53.480	13.113	-53.221	11.116	0
18460.594	-53.463	13.171	-53.190	11.179	0
18460.719	-53.440	13.222	-53.153	11.236	0
18460.844	-53.440	13.294	-53.138	11.314	0
18460.969	-53.439	13.366	-53.124	11.392	0
18461.094	-53.438	13.439	-53.109	11.469	0
18461.219	-53.437	13.511	-53.095	11.547	0
18461.344	-53.436	13.583	-53.081	11.624	0
18461.469	-53.435	13.655	-53.067	11.702	0
18461.594	-53.434	13.727	-53.053	11.780	0
18461.719	-53.434	13.799	-53.039	11.857	0
18461.844	-53.433	13.871	-53.026	11.935	0
18461.969	-53.432	13.944	-53.012	12.012	0
18462.094	-53.431	14.016	-52.999	12.089	0
18462.219	-53.430	14.088	-52.986	12.167	0
18462.344	-53.429	14.160	-52.974	12.244	0
18462.469	-53.429	14.232	-52.961	12.321	0
18462.594	-53.428	14.304	-52.949	12.398	0
18462.719	-53.427	14.377	-52.943	12.473	0
18462.844	-53.426	14.449	-52.940	12.547	0
18462.969	-53.391	14.513	-52.905	12.613	0
18463.094	-53.355	14.578	-52.872	12.681	0
18463.219	-53.319	14.645	-52.842	12.751	0
18463.344	-53.285	14.713	-52.815	12.821	0
18463.469	-53.255	14.782	-52.795	12.893	0
18463.594	-53.226	14.851	-52.779	12.964	0
18463.719	-53.197	14.919	-52.763	13.035	0
18463.844	-53.176	14.984	-52.755	13.102	0
18463.969	-53.160	15.050	-52.753	13.170	0
18464.094	-53.152	15.115	-52.758	13.236	0
18464.219	-53.143	15.180	-52.763	13.301	0
18464.344	-53.132	15.245	-52.765	13.367	0
18464.469	-53.128	15.308	-52.772	13.431	0
18464.594	-53.135	15.368	-52.790	13.490	0
18464.719	-53.156	15.424	-52.821	13.547	0
18464.844	-53.187	15.479	-52.861	13.602	0
18464.969	-53.217	15.535	-52.898	13.658	0
18465.094	-53.220	15.614	-52.905	13.737	0
18465.219	-53.223	15.693	-52.910	13.816	0
18465.344	-53.226	15.772	-52.912	13.895	0
18465.469	-53.229	15.852	-52.912	13.973	0
18465.594	-53.235	15.924	-52.913	14.044	0
18465.719	-53.241	16.001	-52.913	14.121	0
18465.844	-53.248	16.075	-52.910	14.195	0
18465.969	-53.197	16.178	-52.848	14.298	0
18466.094	-53.223	16.241	-52.863	14.362	0
18466.219	-53.249	16.304	-52.877	14.426	0
18466.344	-53.274	16.367	-52.890	14.492	0
18466.469	-53.300	16.431	-52.903	14.557	0
18466.594	-53.332	16.495	-52.923	14.624	0
18466.719	-53.364	16.560	-52.941	14.692	0
18466.844	-53.393	16.630	-52.955	14.765	0
18466.969	-53.418	16.708	-52.966	14.847	0
18467.094	-53.446	16.787	-52.979	14.927	0
18467.219	-53.474	16.864	-52.992	15.007	0
18467.344	-53.502	16.941	-53.006	15.086	0
18467.469	-53.530	17.018	-53.020	15.166	0
18467.594	-53.560	17.091	-53.037	15.242	0
18467.719	-53.591	17.165	-53.056	15.318	0
18467.844	-53.620	17.235	-53.073	15.391	0
18467.969	-53.649	17.296	-53.092	15.454	0
18468.094	-53.673	17.355	-53.107	15.516	0
18468.219	-53.698	17.416	-53.124	15.579	0
18468.344	-53.722	17.477	-53.141	15.642	0
18468.469	-53.741	17.530	-53.153	15.698	0
18468.594	-53.760	17.583	-53.167	15.754	0
18468.719	-53.781	17.635	-53.184	15.809	0
18468.844	-53.802	17.687	-53.203	15.863	0
18468.969	-53.813	17.743	-53.212	15.923	0
18469.094	-53.819	17.806	-53.216	15.989	0
18469.219	-53.825	17.869	-53.222	16.056	0
18469.344	-53.833	17.931	-53.230	16.123	0
18469.469	-53.843	17.994	-53.241	16.191	0
18469.594	-53.854	18.056	-53.254	16.259	0
18469.719	-53.866	18.119	-53.267	16.327	0
18469.844	-53.879	18.181	-53.280	16.396	0
18469.969	-53.893	18.244	-53.295	16.466	0
18470.094	-53.918	18.301	-53.322	16.529	0
18470.219	-53.944	18.358	-53.348	16.593	0
18470.344	-53.969	18.415	-53.374	16.655	0
18470.469	-53.989	18.466	-53.395	16.712	0
18470.594	-54.009	18.523	-53.415	16.774	0
18470.719	-54.032	18.578	-53.438	16.834	0
18470.844	-54.056	18.634	-53.462	16.893	0
18470.969	-54.075	18.656	-53.481	16.918	0
18471.094	-54.100	18.723	-53.506	16.987	0
18471.219	-54.125	18.790	-53.532	17.055	0
18471.344	-54.149	18.857	-53.559	17.123	0
18471.469	-54.170	18.925	-53.582	17.190	0
18471.594	-54.176	18.994	-53.590	17.258	0
18471.719	-54.180	19.063	-53.597	17.326	0
18471.844	-54.183	19.132	-53.603	17.394	0
18471.969	-54.186	19.201	-53.610	17.461	0
18472.094	-54.192	19.270	-53.621	17.529	0
18472.219	-54.199	19.338	-53.632	17.596	0
18472.344	-54.207	19.407	-53.644	17.664	0
18472.469	-54.212	19.473	-53.654	17.730	0
18472.594	-54.220	19.537	-53.667	17.794	0
18472.719	-54.227	19.601	-53.680	17.859	0
18472.844	-54.241	19.664	-53.698	17.923	0
18472.969	-54.261	19.724	-53.723	17.984	0
18473.094	-54.285	19.783	-53.753	18.045	0
18473.219	-54.310	19.843	-53.782	18.107	0
18473.344	-54.334	19.902	-53.811	18.169	0
18473.469	-54.363	19.958	-53.843	18.228	0
18473.594	-54.396	20.009	-53.879	18.282	0
18473.719	-54.431	20.058	-53.917	18.336	0
18473.844	-54.469	20.108	-53.955	18.390	0
18473.969	-54.508	20.159	-53.995	18.445	0
18474.094	-54.552	20.208	-54.038	18.499	0
18474.219	-54.597	20.257	-54.082	18.553	0
18474.344	-54.640	20.306	-54.123	18.608	0
18474.469	-54.683	20.355	-54.162	18.662	0
18474.594	-54.731	20.408	-54.206	18.720	0
18474.719	-54.782	20.462	-54.252	18.780	0
18474.844	-54.834	20.516	-54.298	18.840	0
18474.969	-54.884	20.569	-54.342	18.899	0
18475.094	-54.938	20.631	-54.389	18.967	0
18475.219	-54.993	20.694	-54.435	19.036	0
18475.344	-55.046	20.758	-54.480	19.107	0
18475.469	-55.095	20.821	-54.520	19.177	0
18475.594	-55.141	20.881	-54.556	19.245	0
18475.719	-55.189	20.943	-54.595	19.315	0
18475.844	-55.238	21.006	-54.634	19.386	0
18475.969	-55.285	21.070	-54.671	19.458	0
18476.094	-55.331	21.133	-54.708	19.529	0
18476.219	-55.376	21.192	-54.744	19.596	0
18476.344	-55.421	21.251	-54.781	19.663	0
18476.469	-55.466	21.310	-54.819	19.727	0
18476.594	-55.509	21.367	-54.856	19.790	0
18476.719	-55.550	21.423	-54.892	19.852	0
18476.844	-55.590	21.481	-54.929	19.914	0
18476.969	-55.628	21.541	-54.965	19.979	0
18477.094	-55.666	21.603	-55.001	20.045	0
18477.219	-55.704	21.664	-55.039	20.109	0
18477.344	-55.743	21.722	-55.080	20.170	0
18477.469	-55.787	21.780	-55.126	20.230	0
18477.594	-55.821	21.848	-55.162	20.300	0
18477.719	-55.855	21.919	-55.198	20.371	0
18477.844	-55.892	21.989	-55.237	20.441	0
18477.969	-55.929	22.057	-55.278	20.509	0
18478.094	-55.968	22.125	-55.321	20.576	0
18478.219	-56.008	22.191	-55.365	20.641	0
18478.344	-56.052	22.256	-55.413	20.703	0
18478.469	-56.125	22.302	-55.491	20.748	0
18478.594	-56.194	22.354	-55.565	20.797	0
18478.719	-56.255	22.409	-55.630	20.851	0
18478.844	-56.308	22.467	-55.685	20.908	0
18478.969	-56.367	22.520	-55.747	20.960	0
18479.094	-56.434	22.572	-55.817	21.012	0
18479.219	-56.502	22.625	-55.886	21.065	0
18479.344	-56.569	22.677	-55.955	21.118	0
18479.469	-56.638	22.729	-56.025	21.171	0
18479.594	-56.691	22.784	-56.080	21.226	0
18479.719	-56.735	22.839	-56.124	21.282	0
18479.844	-56.776	22.895	-56.166	21.336	0
18479.969	-56.817	22.950	-56.207	21.389	0
18480.094	-56.857	23.004	-56.248	21.440	0
18480.219	-56.897	23.059	-56.290	21.490	0
18480.344	-56.936	23.115	-56.332	21.540	0
18480.469	-56.973	23.172	-56.372	21.590	0
18480.594	-57.006	23.228	-56.407	21.638	0
18480.719	-57.038	23.285	-56.442	21.685	0
18480.844	-57.067	23.344	-56.474	21.733	0
18480.969	-57.093	23.405	-56.504	21.783	0
18481.094	-57.119	23.466	-56.534	21.832	0
18481.219	-57.145	23.527	-56.564	21.882	0
18481.344	-57.169	23.590	-56.593	21.932	0
18481.469	-57.176	23.662	-56.602	21.991	0
18481.594	-57.198	23.727	-56.630	22.045	0
18481.719	-57.223	23.791	-56.660	22.099	0
18481.844	-57.246	23.855	-56.689	22.154	0
18481.969	-57.268	23.916	-56.717	22.206	0
18482.094	-57.291	23.978	-56.745	22.261	0
18482.219	-57.313	24.040	-56.774	22.318	0
18482.344	-57.334	24.103	-56.803	22.378	0
18482.469	-57.352	24.169	-56.829	22.442	0
18482.594	-57.383	24.224	-56.870	22.497	0
18482.719	-57.420	24.271	-56.917	22.546	0
18482.844	-57.456	24.319	-56.963	22.598	0
18482.969	-57.492	24.367	-57.008	22.650	0
18483.094	-57.527	24.415	-57.053	22.704	0
18483.219	-57.561	24.464	-57.096	22.760	0
18483.344	-57.592	24.514	-57.135	22.818	0
18483.469	-57.613	24.565	-57.164	22.877	0
18483.594	-57.626	24.614	-57.182	22.936	0
18483.719	-57.647	24.664	-57.210	22.996	0
18483.844	-57.670	24.714	-57.240	23.057	0
18483.969	-57.683	24.764	-57.259	23.118	0
18484.094	-57.695	24.813	-57.278	23.179	0
18484.219	-57.707	24.863	-57.297	23.241	0
18484.344	-57.721	24.912	-57.316	23.302	0
18484.469	-57.731	24.961	-57.331	23.362	0
18484.594	-57.751	25.008	-57.356	23.421	0
18484.719	-57.777	25.053	-57.387	23.478	0
18484.844	-57.807	25.099	-57.422	23.534	0
18484.969	-57.839	25.144	-57.458	23.590	0
18485.094	-57.870	25.189	-57.494	23.644	0
18485.219	-57.902	25.234	-57.529	23.698	0
18485.344	-57.923	25.271	-57.554	23.743	0
18485.469	-57.972	25.334	-57.609	23.814	0
18485.594	-58.017	25.374	-57.660	23.860	0
18485.719	-58.062	25.414	-57.712	23.906	0
18485.844	-58.098	25.457	-57.754	23.955	0
18485.969	-58.135	25.501	-57.796	24.003	0
18486.094	-58.171	25.545	-57.839	24.051	0
18486.219	-58.207	25.589	-57.882	24.098	0
18486.344	-58.264	25.593	-57.947	24.105	0
