Tag:	36383
Reference:	VERO2
Coast Distance (km): 	0.0
Estimation Time Delay (days): 	0.0

CNES Day	Lon	Lat	LonCor	LatCor	Delay
19199.249	-53.930	5.746	-53.930	5.746	0
19199.374	-53.905	5.755	-54.879	4.784	0
19199.499	-53.881	5.763	-54.854	4.792	0
19199.624	-53.856	5.772	-54.829	4.801	0
19199.749	-53.844	5.777	-54.817	4.806	0
19199.874	-53.831	5.782	-54.804	4.811	0
19199.999	-53.818	5.787	-54.791	4.816	0
19200.124	-53.806	5.792	-54.778	4.821	0
19200.249	-53.765	5.803	-54.737	4.833	0
19200.374	-53.723	5.815	-54.695	4.845	0
19200.499	-53.685	5.831	-54.656	4.861	0
19200.624	-53.654	5.846	-54.626	4.876	0
19200.749	-53.628	5.860	-54.599	4.890	0
19200.874	-53.606	5.872	-54.577	4.903	0
19200.999	-53.586	5.882	-54.556	4.912	0
19201.124	-53.564	5.892	-54.534	4.923	0
19201.249	-53.543	5.902	-54.513	4.933	0
19201.374	-53.525	5.906	-54.489	4.924	0
19201.499	-53.506	5.910	-54.466	4.914	0
19201.624	-53.493	5.912	-54.448	4.902	0
19201.749	-53.480	5.914	-54.429	4.888	0
19201.874	-53.467	5.907	-54.408	4.864	0
19201.999	-53.453	5.896	-54.385	4.835	0
19202.124	-53.439	5.881	-54.362	4.801	0
19202.249	-53.425	5.866	-54.339	4.767	0
19202.374	-53.414	5.853	-54.318	4.736	0
19202.499	-53.402	5.839	-54.298	4.704	0
19202.624	-53.393	5.826	-54.279	4.672	0
19202.749	-53.384	5.813	-54.261	4.641	0
19202.874	-53.375	5.804	-54.243	4.614	0
19202.999	-53.369	5.796	-54.228	4.588	0
19203.124	-53.363	5.789	-54.212	4.562	0
19203.249	-53.357	5.781	-54.197	4.537	0
19203.374	-53.350	5.776	-54.181	4.513	0
19203.499	-53.344	5.772	-54.165	4.492	0
19203.624	-53.338	5.771	-54.150	4.473	0
19203.749	-53.337	5.768	-54.139	4.453	0
19203.874	-53.339	5.764	-54.133	4.431	0
19203.999	-53.340	5.760	-54.124	4.409	0
19204.124	-53.339	5.756	-54.113	4.387	0
19204.249	-53.337	5.753	-54.103	4.367	0
19204.374	-53.337	5.750	-54.093	4.347	0
19204.499	-53.336	5.749	-54.082	4.328	0
19204.624	-53.335	5.747	-54.072	4.308	0
19204.749	-53.334	5.744	-54.062	4.288	0
19204.874	-53.330	5.741	-54.049	4.268	0
19204.999	-53.325	5.739	-54.034	4.249	0
19205.124	-53.314	5.739	-54.014	4.231	0
19205.249	-53.304	5.739	-53.994	4.214	0
19205.374	-53.294	5.740	-53.974	4.198	0
19205.499	-53.283	5.742	-53.955	4.183	0
19205.624	-53.273	5.743	-53.934	4.168	0
19205.749	-53.258	5.744	-53.910	4.151	0
19205.874	-53.246	5.742	-53.888	4.133	0
19205.999	-53.234	5.741	-53.868	4.114	0
19206.124	-53.222	5.738	-53.846	4.095	0
19206.249	-53.213	5.738	-53.827	4.078	0
19206.374	-53.207	5.739	-53.812	4.062	0
19206.499	-53.202	5.742	-53.798	4.049	0
19206.624	-53.198	5.747	-53.784	4.037	0
19206.749	-53.198	5.749	-53.774	4.023	0
19206.874	-53.208	5.754	-53.775	4.011	0
19206.999	-53.221	5.760	-53.778	4.000	0
19207.124	-53.237	5.767	-53.785	3.991	0
19207.249	-53.260	5.778	-53.799	3.985	0
19207.374	-53.278	5.782	-53.807	3.973	0
19207.499	-53.297	5.787	-53.816	3.962	0
19207.624	-53.306	5.794	-53.816	3.953	0
19207.749	-53.318	5.801	-53.819	3.944	0
19207.874	-53.329	5.807	-53.820	3.933	0
19207.999	-53.340	5.812	-53.822	3.923	0
19208.124	-53.350	5.817	-53.822	3.911	0
19208.249	-53.364	5.822	-53.827	3.901	0
19208.374	-53.373	5.826	-53.827	3.889	0
19208.499	-53.381	5.830	-53.824	3.877	0
19208.624	-53.383	5.834	-53.817	3.865	0
19208.749	-53.385	5.838	-53.811	3.854	0
19208.874	-53.389	5.842	-53.804	3.842	0
19208.999	-53.390	5.845	-53.796	3.830	0
19209.124	-53.388	5.848	-53.785	3.817	0
19209.249	-53.386	5.849	-53.774	3.802	0
19209.374	-53.384	5.849	-53.763	3.787	0
19209.499	-53.384	5.849	-53.753	3.771	0
19209.624	-53.383	5.849	-53.743	3.756	0
19209.749	-53.382	5.850	-53.732	3.742	0
19209.874	-53.379	5.850	-53.720	3.726	0
19209.999	-53.378	5.849	-53.710	3.710	0
19210.124	-53.374	5.849	-53.696	3.695	0
19210.249	-53.368	5.850	-53.682	3.681	0
19210.374	-53.370	5.847	-53.674	3.663	0
19210.499	-53.369	5.842	-53.664	3.643	0
19210.624	-53.367	5.838	-53.653	3.623	0
19210.749	-53.365	5.833	-53.642	3.604	0
19210.874	-53.364	5.830	-53.632	3.586	0
19210.999	-53.363	5.827	-53.622	3.568	0
19211.124	-53.363	5.827	-53.612	3.553	0
19211.249	-53.363	5.826	-53.604	3.538	0
19211.374	-53.364	5.825	-53.595	3.522	0
19211.499	-53.365	5.824	-53.588	3.506	0
19211.624	-53.367	5.822	-53.580	3.490	0
19211.749	-53.368	5.820	-53.573	3.472	0
19211.874	-53.369	5.817	-53.565	3.456	0
19211.999	-53.372	5.814	-53.558	3.438	0
19212.124	-53.375	5.812	-53.552	3.421	0
19212.249	-53.378	5.809	-53.547	3.404	0
19212.374	-53.383	5.805	-53.542	3.385	0
19212.499	-53.386	5.800	-53.537	3.366	0
19212.624	-53.389	5.797	-53.531	3.348	0
19212.749	-53.392	5.794	-53.525	3.332	0
19212.874	-53.395	5.792	-53.520	3.315	0
19212.999	-53.397	5.794	-53.513	3.302	0
19213.124	-53.401	5.803	-53.507	3.297	0
19213.249	-53.403	5.815	-53.501	3.295	0
19213.374	-53.404	5.831	-53.493	3.297	0
19213.499	-53.403	5.853	-53.483	3.305	0
19213.624	-53.400	5.881	-53.471	3.319	0
19213.749	-53.395	5.913	-53.457	3.336	0
19213.874	-53.389	5.949	-53.465	3.350	0
19213.999	-53.381	5.987	-53.472	3.365	0
19214.124	-53.371	6.032	-53.478	3.386	0
19214.249	-53.360	6.080	-53.484	3.409	0
19214.374	-53.346	6.137	-53.488	3.441	0
19214.499	-53.331	6.196	-53.492	3.473	0
19214.624	-53.316	6.258	-53.497	3.506	0
19214.749	-53.300	6.321	-53.502	3.540	0
19214.874	-53.286	6.386	-53.506	3.574	0
19214.999	-53.270	6.452	-53.506	3.607	0
19215.124	-53.253	6.519	-53.502	3.639	0
19215.249	-53.236	6.587	-53.497	3.669	0
19215.374	-53.219	6.655	-53.487	3.697	0
19215.499	-53.202	6.728	-53.473	3.727	0
19215.624	-53.188	6.802	-53.455	3.754	0
19215.749	-53.175	6.878	-53.432	3.781	0
19215.874	-53.162	6.958	-53.403	3.811	0
19215.999	-53.152	7.045	-53.372	3.844	0
19216.124	-53.141	7.134	-53.336	3.876	0
19216.249	-53.131	7.224	-53.295	3.907	0
19216.374	-53.122	7.325	-53.252	3.946	0
19216.499	-53.109	7.437	-53.203	3.998	0
19216.624	-53.081	7.564	-53.138	4.067	0
19216.749	-53.056	7.688	-53.075	4.134	0
19216.874	-53.027	7.810	-53.012	4.200	0
19216.999	-52.999	7.933	-52.951	4.269	0
19217.124	-52.969	8.059	-52.893	4.342	0
19217.249	-52.938	8.186	-52.839	4.419	0
19217.374	-52.905	8.313	-52.791	4.500	0
19217.499	-52.865	8.437	-52.742	4.583	0
19217.624	-52.821	8.555	-52.694	4.665	0
19217.749	-52.774	8.663	-52.651	4.743	0
19217.874	-52.635	8.692	-52.519	4.746	0
19217.999	-52.496	8.721	-52.393	4.754	0
19218.124	-52.367	8.766	-52.281	4.786	0
19218.249	-52.246	8.814	-52.183	4.828	0
19218.374	-52.127	8.864	-52.090	4.877	0
19218.499	-52.019	8.899	-52.011	4.919	0
19218.624	-51.907	8.917	-51.929	4.946	0
19218.749	-51.762	8.990	-51.816	5.032	0
19218.874	-51.625	9.047	-51.710	5.105	0
19218.999	-51.526	9.036	-51.643	5.112	0
19219.124	-51.437	9.031	-51.584	5.127	0
19219.249	-51.349	9.027	-51.524	5.143	0
19219.374	-51.262	9.024	-51.463	5.162	0
19219.499	-51.178	9.023	-51.402	5.184	0
19219.624	-51.098	9.027	-51.343	5.213	0
19219.749	-51.023	9.036	-51.287	5.247	0
19219.874	-50.954	9.048	-51.235	5.284	0
19219.999	-50.898	9.072	-51.193	5.334	0
19220.124	-50.843	9.099	-51.149	5.384	0
19220.249	-50.788	9.125	-51.105	5.432	0
19220.374	-50.733	9.152	-51.058	5.479	0
19220.499	-50.679	9.178	-51.010	5.524	0
19220.624	-50.625	9.205	-50.961	5.568	0
19220.749	-50.572	9.237	-50.912	5.615	0
19220.874	-50.519	9.272	-50.862	5.664	0
19220.999	-50.466	9.318	-50.811	5.724	0
19221.124	-50.413	9.366	-50.758	5.784	0
19221.249	-50.360	9.412	-50.706	5.842	0
19221.374	-50.308	9.456	-50.654	5.897	0
19221.499	-50.252	9.504	-50.599	5.954	0
19221.624	-50.197	9.549	-50.543	6.009	0
19221.749	-50.141	9.595	-50.488	6.063	0
19221.874	-50.085	9.639	-50.432	6.114	0
19221.999	-50.028	9.679	-50.375	6.160	0
19222.124	-49.970	9.715	-50.317	6.202	0
19222.249	-49.911	9.748	-50.259	6.241	0
19222.374	-49.857	9.777	-50.206	6.274	0
19222.499	-49.807	9.795	-50.158	6.296	0
19222.624	-49.760	9.814	-50.112	6.318	0
19222.749	-49.714	9.831	-50.069	6.338	0
19222.874	-49.672	9.847	-50.028	6.357	0
19222.999	-49.630	9.862	-49.986	6.374	0
19223.124	-49.591	9.878	-49.947	6.391	0
19223.249	-49.553	9.893	-49.909	6.407	0
19223.374	-49.520	9.907	-49.875	6.423	0
19223.499	-49.491	9.925	-49.844	6.442	0
19223.624	-49.463	9.951	-49.814	6.469	0
19223.749	-49.433	9.985	-49.782	6.503	0
19223.874	-49.403	10.020	-49.751	6.538	0
19223.999	-49.373	10.055	-49.721	6.573	0
19224.124	-49.340	10.090	-49.689	6.607	0
19224.249	-49.309	10.124	-49.658	6.639	0
19224.374	-49.277	10.158	-49.628	6.671	0
19224.499	-49.246	10.194	-49.599	6.704	0
19224.624	-49.211	10.232	-49.567	6.739	0
19224.749	-49.177	10.271	-49.535	6.775	0
19224.874	-49.139	10.304	-49.498	6.806	0
19224.999	-49.101	10.336	-49.461	6.835	0
19225.124	-49.064	10.369	-49.425	6.866	0
19225.249	-49.026	10.401	-49.388	6.896	0
19225.374	-48.989	10.433	-49.351	6.927	0
19225.499	-48.951	10.465	-49.314	6.957	0
19225.624	-48.913	10.496	-49.276	6.987	0
19225.749	-48.876	10.528	-49.238	7.017	0
19225.874	-48.839	10.560	-49.200	7.049	0
19225.999	-48.801	10.593	-49.161	7.082	0
19226.124	-48.762	10.626	-49.121	7.116	0
19226.249	-48.724	10.660	-49.080	7.150	0
19226.374	-48.685	10.694	-49.038	7.185	0
19226.499	-48.646	10.729	-48.996	7.221	0
19226.624	-48.606	10.765	-48.952	7.258	0
19226.749	-48.568	10.794	-48.910	7.288	0
19226.874	-48.531	10.823	-48.868	7.317	0
19226.999	-48.496	10.849	-48.828	7.343	0
19227.124	-48.461	10.876	-48.786	7.370	0
19227.249	-48.427	10.902	-48.745	7.394	0
19227.374	-48.397	10.928	-48.707	7.419	0
19227.499	-48.370	10.956	-48.671	7.445	0
19227.624	-48.342	10.983	-48.633	7.470	0
19227.749	-48.312	11.008	-48.593	7.493	0
19227.874	-48.279	11.031	-48.550	7.513	0
19227.999	-48.254	11.055	-48.515	7.535	0
19228.124	-48.241	11.083	-48.492	7.562	0
19228.249	-48.229	11.111	-48.470	7.588	0
19228.374	-48.218	11.140	-48.448	7.615	0
19228.499	-48.208	11.171	-48.427	7.644	0
19228.624	-48.198	11.201	-48.407	7.673	0
19228.749	-48.184	11.232	-48.382	7.703	0
19228.874	-48.160	11.258	-48.347	7.729	0
19228.999	-48.139	11.286	-48.315	7.756	0
19229.124	-48.119	11.314	-48.283	7.783	0
19229.249	-48.098	11.341	-48.250	7.811	0
19229.374	-48.075	11.369	-48.216	7.839	0
19229.499	-48.053	11.392	-48.181	7.863	0
19229.624	-48.031	11.415	-48.147	7.886	0
19229.749	-48.012	11.440	-48.115	7.912	0
19229.874	-47.995	11.458	-48.086	7.931	0
19229.999	-47.978	11.474	-48.055	7.947	0
19230.124	-47.959	11.490	-48.023	7.963	0
19230.249	-47.940	11.505	-47.990	7.979	0
19230.374	-47.927	11.522	-47.963	7.996	0
19230.499	-47.913	11.539	-47.935	8.013	0
19230.624	-47.899	11.556	-47.906	8.031	0
19230.749	-47.886	11.574	-47.879	8.048	0
19230.874	-47.864	11.592	-47.842	8.067	0
19230.999	-47.839	11.610	-47.802	8.086	0
19231.124	-47.812	11.628	-47.760	8.104	0
19231.249	-47.785	11.645	-47.718	8.123	0
19231.374	-47.757	11.663	-47.674	8.141	0
19231.499	-47.728	11.677	-47.631	8.156	0
19231.624	-47.699	11.690	-47.586	8.171	0
19231.749	-47.674	11.701	-47.546	8.182	0
19231.874	-47.650	11.710	-47.507	8.193	0
19231.999	-47.627	11.718	-47.470	8.202	0
19232.124	-47.606	11.724	-47.434	8.209	0
19232.249	-47.585	11.729	-47.400	8.216	0
19232.374	-47.571	11.740	-47.372	8.228	0
19232.499	-47.555	11.751	-47.342	8.241	0
19232.624	-47.537	11.762	-47.311	8.254	0
19232.749	-47.518	11.772	-47.278	8.266	0
19232.874	-47.505	11.780	-47.252	8.276	0
19232.999	-47.492	11.789	-47.226	8.286	0
19233.124	-47.478	11.802	-47.198	8.302	0
19233.249	-47.463	11.815	-47.170	8.317	0
19233.374	-47.449	11.829	-47.143	8.333	0
19233.499	-47.433	11.843	-47.113	8.349	0
19233.624	-47.416	11.857	-47.083	8.365	0
19233.749	-47.403	11.871	-47.056	8.382	0
19233.874	-47.393	11.887	-47.032	8.399	0
19233.999	-47.384	11.902	-47.007	8.416	0
19234.124	-47.375	11.918	-46.983	8.433	0
19234.249	-47.370	11.936	-46.961	8.452	0
19234.374	-47.369	11.959	-46.943	8.477	0
19234.499	-47.367	11.982	-46.925	8.500	0
19234.624	-47.367	12.006	-46.906	8.524	0
19234.749	-47.363	12.029	-46.885	8.549	0
19234.874	-47.360	12.054	-46.864	8.575	0
19234.999	-47.357	12.079	-46.844	8.602	0
19235.124	-47.354	12.105	-46.824	8.630	0
19235.249	-47.350	12.131	-46.803	8.658	0
19235.374	-47.341	12.152	-46.777	8.682	0
19235.499	-47.330	12.173	-46.749	8.706	0
19235.624	-47.317	12.193	-46.720	8.730	0
19235.749	-47.305	12.213	-46.692	8.754	0
19235.874	-47.289	12.230	-46.661	8.775	0
19235.999	-47.272	12.247	-46.629	8.795	0
19236.124	-47.254	12.264	-46.598	8.816	0
19236.249	-47.237	12.280	-46.568	8.836	0
19236.374	-47.223	12.298	-46.541	8.858	0
19236.499	-47.207	12.314	-46.514	8.878	0
19236.624	-47.192	12.330	-46.487	8.897	0
19236.749	-47.175	12.345	-46.460	8.916	0
19236.874	-47.158	12.357	-46.432	8.933	0
19236.999	-47.141	12.368	-46.404	8.948	0
19237.124	-47.124	12.380	-46.376	8.964	0
19237.249	-47.107	12.391	-46.349	8.980	0
19237.374	-47.091	12.400	-46.323	8.994	0
19237.499	-47.076	12.409	-46.297	9.007	0
19237.624	-47.061	12.417	-46.271	9.020	0
19237.749	-47.049	12.424	-46.248	9.032	0
19237.874	-47.039	12.430	-46.228	9.043	0
19237.999	-47.033	12.443	-46.210	9.061	0
19238.124	-47.027	12.468	-46.193	9.090	0
19238.249	-47.021	12.489	-46.176	9.115	0
19238.374	-47.015	12.509	-46.158	9.140	0
19238.499	-47.004	12.529	-46.136	9.164	0
19238.624	-46.994	12.547	-46.114	9.187	0
19238.749	-46.983	12.565	-46.092	9.209	0
19238.874	-46.974	12.585	-46.071	9.233	0
19238.999	-46.963	12.607	-46.049	9.258	0
19239.124	-46.953	12.629	-46.027	9.284	0
19239.249	-46.943	12.654	-46.007	9.312	0
19239.374	-46.927	12.666	-45.979	9.328	0
19239.499	-46.917	12.685	-45.958	9.350	0
19239.624	-46.909	12.707	-45.939	9.375	0
19239.749	-46.899	12.728	-45.918	9.399	0
19239.874	-46.888	12.750	-45.897	9.423	0
19239.999	-46.876	12.771	-45.875	9.448	0
19240.124	-46.868	12.797	-45.857	9.476	0
19240.249	-46.860	12.822	-45.840	9.504	0
19240.374	-46.852	12.847	-45.823	9.532	0
19240.499	-46.843	12.874	-45.805	9.562	0
19240.624	-46.828	12.903	-45.781	9.594	0
19240.749	-46.805	12.929	-45.750	9.623	0
19240.874	-46.777	12.951	-45.714	9.648	0
19240.999	-46.751	12.970	-45.679	9.670	0
19241.124	-46.724	12.989	-45.644	9.691	0
19241.249	-46.698	13.008	-45.609	9.712	0
19241.374	-46.676	13.029	-45.580	9.735	0
19241.499	-46.656	13.051	-45.552	9.759	0
19241.624	-46.635	13.072	-45.523	9.781	0
19241.749	-46.611	13.092	-45.491	9.801	0
19241.874	-46.593	13.109	-45.465	9.819	0
19241.999	-46.585	13.133	-45.449	9.843	0
19242.124	-46.577	13.158	-45.432	9.867	0
19242.249	-46.570	13.184	-45.416	9.892	0
19242.374	-46.563	13.213	-45.399	9.920	0
19242.499	-46.557	13.247	-45.382	9.952	0
19242.624	-46.536	13.272	-45.349	9.975	0
19242.749	-46.524	13.299	-45.326	10.000	0
19242.874	-46.515	13.325	-45.305	10.025	0
19242.999	-46.507	13.350	-45.286	10.048	0
19243.124	-46.497	13.376	-45.264	10.073	0
19243.249	-46.486	13.403	-45.242	10.099	0
19243.374	-46.471	13.430	-45.215	10.125	0
19243.499	-46.454	13.453	-45.187	10.148	0
19243.624	-46.452	13.479	-45.173	10.173	0
19243.749	-46.448	13.508	-45.158	10.201	0
19243.874	-46.443	13.539	-45.142	10.230	0
19243.999	-46.436	13.569	-45.123	10.259	0
19244.124	-46.426	13.598	-45.103	10.288	0
19244.249	-46.416	13.628	-45.082	10.316	0
19244.374	-46.400	13.656	-45.055	10.343	0
19244.499	-46.383	13.683	-45.027	10.369	0
19244.624	-46.362	13.708	-44.995	10.392	0
19244.749	-46.340	13.730	-44.963	10.411	0
19244.874	-46.316	13.750	-44.930	10.429	0
19244.999	-46.291	13.767	-44.895	10.444	0
19245.124	-46.264	13.784	-44.860	10.458	0
19245.249	-46.238	13.801	-44.825	10.471	0
19245.374	-46.211	13.815	-44.790	10.483	0
19245.499	-46.182	13.825	-44.753	10.490	0
19245.624	-46.153	13.832	-44.718	10.494	0
19245.749	-46.125	13.838	-44.683	10.496	0
19245.874	-46.098	13.842	-44.649	10.495	0
19245.999	-46.070	13.841	-44.614	10.489	0
19246.124	-46.042	13.840	-44.579	10.482	0
19246.249	-46.020	13.840	-44.550	10.476	0
19246.374	-46.000	13.841	-44.522	10.469	0
19246.499	-45.978	13.842	-44.493	10.463	0
19246.624	-45.956	13.843	-44.464	10.456	0
19246.749	-45.937	13.847	-44.436	10.452	0
19246.874	-45.920	13.853	-44.410	10.451	0
19246.999	-45.902	13.868	-44.381	10.458	0
19247.124	-45.883	13.882	-44.352	10.464	0
19247.249	-45.867	13.897	-44.325	10.471	0
19247.374	-45.857	13.913	-44.301	10.478	0
19247.499	-45.842	13.930	-44.274	10.487	0
19247.624	-45.828	13.952	-44.247	10.502	0
19247.749	-45.815	13.980	-44.220	10.521	0
19247.874	-45.802	14.008	-44.194	10.540	0
19247.999	-45.788	14.036	-44.167	10.558	0
19248.124	-45.774	14.064	-44.140	10.577	0
19248.249	-45.763	14.092	-44.117	10.596	0
19248.374	-45.753	14.121	-44.095	10.614	0
19248.499	-45.733	14.147	-44.063	10.630	0
19248.624	-45.713	14.174	-44.030	10.646	0
19248.749	-45.695	14.199	-44.001	10.661	0
19248.874	-45.678	14.222	-43.973	10.674	0
19248.999	-45.653	14.248	-43.937	10.690	0
19249.124	-45.624	14.274	-43.899	10.708	0
19249.249	-45.597	14.300	-43.861	10.725	0
19249.374	-45.570	14.323	-43.825	10.742	0
19249.499	-45.545	14.338	-43.792	10.751	0
19249.624	-45.524	14.346	-43.762	10.753	0
19249.749	-45.503	14.353	-43.733	10.756	0
19249.874	-45.480	14.361	-43.704	10.759	0
19249.999	-45.455	14.371	-43.672	10.765	0
19250.124	-45.431	14.380	-43.643	10.771	0
19250.249	-45.407	14.388	-43.614	10.777	0
19250.374	-45.384	14.396	-43.587	10.783	0
19250.499	-45.366	14.399	-43.566	10.785	0
19250.624	-45.345	14.404	-43.541	10.789	0
19250.749	-45.323	14.410	-43.516	10.795	0
19250.874	-45.304	14.415	-43.495	10.799	0
19250.999	-45.287	14.419	-43.475	10.803	0
19251.124	-45.270	14.422	-43.455	10.805	0
19251.249	-45.254	14.425	-43.436	10.806	0
19251.374	-45.234	14.426	-43.413	10.806	0
19251.499	-45.214	14.425	-43.390	10.804	0
19251.624	-45.195	14.420	-43.368	10.797	0
19251.749	-45.175	14.415	-43.345	10.791	0
19251.874	-45.155	14.411	-43.321	10.786	0
19251.999	-45.131	14.407	-43.293	10.781	0
19252.124	-45.108	14.402	-43.266	10.777	0
19252.249	-45.084	14.397	-43.240	10.773	0
19252.374	-45.057	14.390	-43.209	10.766	0
19252.499	-45.028	14.383	-43.177	10.760	0
19252.624	-45.001	14.375	-43.146	10.754	0
19252.749	-44.975	14.366	-43.116	10.747	0
19252.874	-44.948	14.357	-43.085	10.740	0
19252.999	-44.927	14.348	-43.059	10.734	0
19253.124	-44.908	14.340	-43.037	10.728	0
19253.249	-44.889	14.331	-43.014	10.722	0
19253.374	-44.870	14.321	-42.990	10.715	0
19253.499	-44.855	14.317	-42.970	10.714	0
19253.624	-44.839	14.313	-42.950	10.713	0
19253.749	-44.824	14.311	-42.929	10.715	0
19253.874	-44.807	14.314	-42.907	10.721	0
19253.999	-44.793	14.314	-42.886	10.725	0
19254.124	-44.782	14.316	-42.868	10.731	0
19254.249	-44.774	14.318	-42.852	10.736	0
19254.374	-44.758	14.320	-42.828	10.742	0
19254.499	-44.741	14.322	-42.803	10.748	0
19254.624	-44.723	14.326	-42.775	10.756	0
19254.749	-44.705	14.329	-42.748	10.763	0
19254.874	-44.688	14.332	-42.721	10.771	0
19254.999	-44.672	14.335	-42.694	10.777	0
19255.124	-44.658	14.336	-42.669	10.783	0
19255.249	-44.653	14.336	-42.654	10.787	0
19255.374	-44.648	14.335	-42.638	10.790	0
19255.499	-44.643	14.334	-42.621	10.794	0
19255.624	-44.637	14.333	-42.604	10.797	0
19255.749	-44.631	14.333	-42.586	10.800	0
19255.874	-44.627	14.333	-42.569	10.803	0
19255.999	-44.627	14.333	-42.558	10.806	0
19256.124	-44.628	14.333	-42.548	10.808	0
19256.249	-44.629	14.332	-42.537	10.809	0
19256.374	-44.628	14.332	-42.525	10.809	0
19256.499	-44.627	14.330	-42.512	10.808	0
19256.624	-44.622	14.322	-42.496	10.800	0
19256.749	-44.615	14.317	-42.476	10.795	0
19256.874	-44.608	14.314	-42.456	10.793	0
19256.999	-44.601	14.311	-42.437	10.791	0
19257.124	-44.598	14.308	-42.420	10.789	0
19257.249	-44.597	14.307	-42.406	10.790	0
19257.374	-44.582	14.301	-42.376	10.786	0
19257.499	-44.571	14.289	-42.350	10.777	0
19257.624	-44.561	14.276	-42.325	10.767	0
19257.749	-44.552	14.264	-42.302	10.759	0
19257.874	-44.543	14.253	-42.277	10.753	0
19257.999	-44.538	14.240	-42.257	10.746	0
19258.124	-44.534	14.227	-42.238	10.739	0
19258.249	-44.530	14.214	-42.219	10.733	0
19258.374	-44.527	14.199	-42.201	10.727	0
19258.499	-44.527	14.183	-42.186	10.720	0
19258.624	-44.535	14.166	-42.179	10.712	0
19258.749	-44.566	14.162	-42.196	10.718	0
19258.874	-44.516	14.168	-42.130	10.733	0
19258.999	-44.507	14.165	-42.107	10.740	0
19259.124	-44.501	14.162	-42.087	10.746	0
19259.249	-44.495	14.158	-42.067	10.752	0
19259.374	-44.491	14.154	-42.049	10.757	0
19259.499	-44.486	14.151	-42.030	10.763	0
19259.624	-44.474	14.148	-42.005	10.770	0
19259.749	-44.462	14.141	-41.979	10.772	0
19259.874	-44.449	14.134	-41.954	10.775	0
