Tag:	04262
Reference:	POTOTUWI
Coast Distance (km): 	0.0
Estimation Time Delay (days): 	0.0

CNES Day	Lon	Lat	LonCor	LatCor	Delay
19192.163	-54.155	5.890	-54.155	5.890	0
19192.288	-54.132	5.955	-55.105	4.984	0
19192.413	-54.150	5.976	-55.126	5.011	0
19192.538	-54.122	6.046	-55.099	5.089	0
19192.663	-54.093	6.116	-55.071	5.166	0
19192.788	-54.065	6.186	-55.043	5.242	0
19192.913	-54.037	6.256	-55.014	5.318	0
19193.038	-54.008	6.326	-54.985	5.394	0
19193.163	-53.980	6.396	-54.955	5.472	0
19193.288	-53.952	6.466	-54.925	5.553	0
19193.413	-53.923	6.536	-54.894	5.635	0
19193.538	-53.900	6.608	-54.869	5.720	0
19193.663	-53.877	6.679	-54.843	5.806	0
19193.788	-53.861	6.752	-54.825	5.894	0
19193.913	-53.845	6.825	-54.806	5.982	0
19194.038	-53.827	6.892	-54.785	6.064	0
19194.163	-53.810	6.960	-54.765	6.147	0
19194.288	-53.792	7.028	-54.743	6.230	0
19194.413	-53.778	7.096	-54.726	6.311	0
19194.538	-53.761	7.160	-54.705	6.387	0
19194.663	-53.745	7.220	-54.685	6.458	0
19194.788	-53.713	7.279	-54.648	6.527	0
19194.913	-53.667	7.342	-54.595	6.599	0
19195.038	-53.619	7.406	-54.540	6.669	0
19195.163	-53.579	7.469	-54.490	6.735	0
19195.288	-53.542	7.533	-54.443	6.798	0
19195.413	-53.507	7.595	-54.397	6.858	0
19195.538	-53.461	7.664	-54.340	6.923	0
19195.663	-53.412	7.725	-54.279	6.977	0
19195.788	-53.367	7.794	-54.221	7.039	0
19195.913	-53.323	7.864	-54.167	7.098	0
19196.038	-53.280	7.948	-54.113	7.170	0
19196.163	-53.236	8.034	-54.059	7.242	0
19196.288	-53.190	8.120	-54.006	7.312	0
19196.413	-53.144	8.209	-53.953	7.382	0
19196.538	-53.097	8.296	-53.902	7.448	0
19196.663	-53.051	8.383	-53.852	7.511	0
19196.788	-53.006	8.466	-53.805	7.570	0
19196.913	-52.963	8.548	-53.760	7.625	0
19197.038	-52.921	8.627	-53.719	7.675	0
19197.163	-52.880	8.705	-53.678	7.724	0
19197.288	-52.842	8.779	-53.640	7.769	0
19197.413	-52.805	8.848	-53.604	7.809	0
19197.538	-52.770	8.910	-53.570	7.843	0
19197.663	-52.737	8.969	-53.540	7.877	0
19197.788	-52.702	9.019	-53.510	7.902	0
19197.913	-52.667	9.064	-53.481	7.925	0
19198.038	-52.628	9.100	-53.449	7.941	0
19198.163	-52.587	9.135	-53.418	7.958	0
19198.288	-52.536	9.162	-53.379	7.970	0
19198.413	-52.481	9.185	-53.338	7.979	0
19198.538	-52.422	9.205	-53.296	7.988	0
19198.663	-52.360	9.223	-53.255	7.996	0
19198.788	-52.295	9.239	-53.210	8.002	0
19198.913	-52.228	9.254	-53.166	8.007	0
19199.038	-52.161	9.271	-53.122	8.014	0
19199.163	-52.093	9.288	-53.077	8.021	0
19199.288	-52.027	9.307	-53.036	8.029	0
19199.413	-51.964	9.330	-52.997	8.042	0
19199.538	-51.908	9.360	-52.965	8.061	0
19199.663	-51.853	9.389	-52.934	8.081	0
19199.788	-51.801	9.426	-52.905	8.109	0
19199.913	-51.747	9.463	-52.876	8.139	0
19200.038	-51.698	9.503	-52.850	8.174	0
19200.163	-51.648	9.542	-52.824	8.209	0
19200.288	-51.601	9.587	-52.800	8.251	0
19200.413	-51.560	9.638	-52.780	8.300	0
19200.538	-51.520	9.687	-52.760	8.347	0
19200.663	-51.481	9.735	-52.739	8.394	0
19200.788	-51.443	9.783	-52.716	8.442	0
19200.913	-51.406	9.829	-52.691	8.488	0
19201.038	-51.369	9.874	-52.665	8.533	0
19201.163	-51.333	9.919	-52.636	8.576	0
19201.288	-51.297	9.961	-52.606	8.619	0
19201.413	-51.262	10.002	-52.575	8.660	0
19201.538	-51.239	10.024	-52.554	8.682	0
19201.663	-51.216	10.046	-52.532	8.705	0
19201.788	-51.193	10.068	-52.509	8.727	0
19201.913	-51.170	10.090	-52.485	8.750	0
19202.038	-51.145	10.116	-52.458	8.777	0
19202.163	-51.120	10.140	-52.431	8.800	0
19202.288	-51.096	10.162	-52.404	8.823	0
19202.413	-51.071	10.181	-52.376	8.842	0
19202.538	-51.054	10.195	-52.355	8.857	0
19202.663	-51.037	10.210	-52.333	8.872	0
19202.788	-50.998	10.256	-52.291	8.919	0
19202.913	-50.951	10.302	-52.238	8.964	0
19203.038	-50.919	10.345	-52.199	9.007	0
19203.163	-50.885	10.389	-52.157	9.050	0
19203.288	-50.851	10.432	-52.114	9.092	0
19203.413	-50.817	10.476	-52.071	9.133	0
19203.538	-50.784	10.519	-52.026	9.174	0
19203.663	-50.751	10.562	-51.981	9.214	0
19203.788	-50.706	10.599	-51.922	9.247	0
19203.913	-50.665	10.636	-51.867	9.280	0
19204.038	-50.622	10.664	-51.809	9.303	0
19204.163	-50.578	10.692	-51.749	9.326	0
19204.288	-50.533	10.719	-51.687	9.348	0
19204.413	-50.489	10.747	-51.625	9.370	0
19204.538	-50.449	10.774	-51.567	9.392	0
19204.663	-50.415	10.803	-51.514	9.415	0
19204.788	-50.372	10.831	-51.451	9.437	0
19204.913	-50.316	10.860	-51.375	9.459	0
19205.038	-50.291	10.892	-51.329	9.485	0
19205.163	-50.265	10.925	-51.283	9.513	0
19205.288	-50.238	10.960	-51.237	9.542	0
19205.413	-50.211	10.994	-51.191	9.572	0
19205.538	-50.184	11.030	-51.145	9.604	0
19205.663	-50.156	11.067	-51.098	9.638	0
19205.788	-50.101	11.093	-51.025	9.662	0
19205.913	-50.051	11.122	-50.956	9.690	0
19206.038	-49.990	11.149	-50.876	9.717	0
19206.163	-49.929	11.177	-50.797	9.746	0
19206.288	-49.876	11.204	-50.726	9.775	0
19206.413	-49.824	11.231	-50.658	9.805	0
19206.538	-49.776	11.256	-50.595	9.835	0
19206.663	-49.724	11.279	-50.528	9.863	0
19206.788	-49.667	11.302	-50.455	9.892	0
19206.913	-49.623	11.319	-50.396	9.917	0
19207.038	-49.602	11.341	-50.362	9.946	0
19207.163	-49.581	11.363	-50.327	9.976	0
19207.288	-49.557	11.390	-50.289	10.010	0
19207.413	-49.531	11.418	-50.250	10.047	0
19207.538	-49.496	11.446	-50.201	10.083	0
19207.663	-49.460	11.474	-50.151	10.120	0
19207.788	-49.421	11.504	-50.098	10.159	0
19207.913	-49.376	11.537	-50.037	10.199	0
19208.038	-49.332	11.569	-49.976	10.239	0
19208.163	-49.287	11.601	-49.915	10.279	0
19208.288	-49.242	11.634	-49.851	10.319	0
19208.413	-49.197	11.666	-49.787	10.357	0
19208.538	-49.157	11.690	-49.727	10.385	0
19208.663	-49.115	11.715	-49.663	10.415	0
19208.788	-49.075	11.737	-49.602	10.441	0
19208.913	-49.040	11.760	-49.546	10.469	0
19209.038	-49.014	11.786	-49.499	10.498	0
19209.163	-48.983	11.810	-49.447	10.526	0
19209.288	-48.958	11.837	-49.401	10.556	0
19209.413	-48.934	11.863	-49.356	10.586	0
19209.538	-48.903	11.881	-49.304	10.606	0
19209.663	-48.872	11.898	-49.253	10.627	0
19209.788	-48.842	11.915	-49.202	10.647	0
19209.913	-48.812	11.932	-49.151	10.667	0
19210.038	-48.781	11.949	-49.099	10.687	0
19210.163	-48.748	11.964	-49.044	10.704	0
19210.288	-48.711	11.976	-48.986	10.719	0
19210.413	-48.669	11.996	-48.922	10.741	0
19210.538	-48.627	12.016	-48.859	10.764	0
19210.663	-48.585	12.036	-48.795	10.786	0
19210.788	-48.543	12.056	-48.730	10.808	0
19210.913	-48.501	12.075	-48.666	10.830	0
19211.038	-48.463	12.100	-48.605	10.858	0
19211.163	-48.424	12.125	-48.544	10.886	0
19211.288	-48.386	12.150	-48.484	10.915	0
19211.413	-48.352	12.176	-48.427	10.943	0
19211.538	-48.318	12.201	-48.371	10.971	0
19211.663	-48.284	12.226	-48.315	11.000	0
19211.788	-48.250	12.251	-48.259	11.028	0
19211.913	-48.234	12.275	-48.222	11.055	0
19212.038	-48.218	12.300	-48.185	11.082	0
19212.163	-48.202	12.324	-48.147	11.108	0
19212.288	-48.159	12.336	-48.083	11.122	0
19212.413	-48.117	12.349	-48.019	11.136	0
19212.538	-48.080	12.364	-47.961	11.152	0
19212.663	-48.052	12.383	-47.912	11.172	0
19212.788	-48.012	12.392	-47.850	11.182	0
19212.913	-47.968	12.395	-47.786	11.185	0
19213.038	-47.924	12.398	-47.722	11.188	0
19213.163	-47.881	12.400	-47.659	11.191	0
19213.288	-47.836	12.405	-47.594	11.196	0
19213.413	-47.782	12.417	-47.520	11.208	0
19213.538	-47.737	12.431	-47.457	11.221	0
19213.663	-47.694	12.453	-47.395	11.242	0
19213.788	-47.649	12.475	-47.332	11.262	0
19213.913	-47.605	12.494	-47.270	11.280	0
19214.038	-47.556	12.511	-47.203	11.297	0
19214.163	-47.510	12.528	-47.140	11.313	0
19214.288	-47.459	12.548	-47.072	11.332	0
19214.413	-47.402	12.569	-46.998	11.353	0
19214.538	-47.349	12.589	-46.928	11.374	0
19214.663	-47.294	12.612	-46.857	11.396	0
19214.788	-47.241	12.632	-46.788	11.417	0
19214.913	-47.202	12.640	-46.734	11.427	0
19215.038	-47.164	12.648	-46.681	11.438	0
19215.163	-47.129	12.658	-46.632	11.451	0
19215.288	-47.103	12.672	-46.593	11.467	0
19215.413	-47.048	12.675	-46.524	11.474	0
19215.538	-46.993	12.679	-46.455	11.482	0
19215.663	-46.938	12.682	-46.386	11.490	0
19215.788	-46.883	12.685	-46.319	11.499	0
19215.913	-46.829	12.689	-46.251	11.508	0
19216.038	-46.774	12.692	-46.185	11.518	0
19216.163	-46.719	12.695	-46.119	11.528	0
19216.288	-46.664	12.699	-46.053	11.538	0
19216.413	-46.609	12.702	-45.988	11.549	0
19216.538	-46.554	12.706	-45.924	11.560	0
19216.663	-46.499	12.709	-45.860	11.571	0
19216.788	-46.445	12.712	-45.796	11.582	0
19216.913	-46.390	12.716	-45.732	11.593	0
19217.038	-46.335	12.719	-45.668	11.603	0
19217.163	-46.280	12.722	-45.604	11.614	0
19217.288	-46.225	12.726	-45.540	11.624	0
19217.413	-46.170	12.729	-45.475	11.634	0
19217.538	-46.115	12.732	-45.410	11.644	0
19217.663	-46.060	12.736	-45.345	11.654	0
19217.788	-46.006	12.739	-45.280	11.664	0
19217.913	-45.951	12.742	-45.214	11.674	0
19218.038	-45.896	12.746	-45.149	11.684	0
19218.163	-45.841	12.749	-45.083	11.694	0
19218.288	-45.786	12.753	-45.017	11.704	0
19218.413	-45.731	12.756	-44.951	11.715	0
19218.538	-45.676	12.759	-44.885	11.726	0
19218.663	-45.622	12.763	-44.819	11.737	0
19218.788	-45.567	12.766	-44.753	11.748	0
19218.913	-45.512	12.769	-44.688	11.759	0
19219.038	-45.463	12.768	-44.630	11.765	0
19219.163	-45.409	12.768	-44.567	11.772	0
19219.288	-45.354	12.768	-44.502	11.779	0
19219.413	-45.298	12.768	-44.437	11.786	0
19219.538	-45.242	12.768	-44.372	11.792	0
19219.663	-45.186	12.768	-44.307	11.798	0
19219.788	-45.134	12.770	-44.247	11.805	0
19219.913	-45.084	12.774	-44.188	11.813	0
19220.038	-45.033	12.778	-44.130	11.820	0
19220.163	-44.983	12.782	-44.074	11.827	0
19220.288	-44.934	12.790	-44.019	11.837	0
19220.413	-44.886	12.797	-43.965	11.846	0
19220.538	-44.839	12.805	-43.912	11.855	0
19220.663	-44.793	12.814	-43.860	11.864	0
19220.788	-44.747	12.824	-43.809	11.873	0
19220.913	-44.700	12.836	-43.757	11.884	0
19221.038	-44.651	12.850	-43.703	11.895	0
19221.163	-44.609	12.842	-43.656	11.884	0
19221.288	-44.567	12.834	-43.609	11.872	0
19221.413	-44.525	12.827	-43.562	11.860	0
19221.538	-44.483	12.819	-43.515	11.847	0
19221.663	-44.440	12.813	-43.466	11.836	0
19221.788	-44.392	12.800	-43.413	11.816	0
19221.913	-44.350	12.787	-43.364	11.796	0
19222.038	-44.311	12.776	-43.316	11.776	0
19222.163	-44.275	12.769	-43.271	11.759	0
19222.288	-44.239	12.761	-43.226	11.742	0
19222.413	-44.203	12.754	-43.180	11.724	0
19222.538	-44.144	12.722	-43.109	11.680	0
19222.663	-44.096	12.691	-43.049	11.637	0
19222.788	-44.050	12.661	-42.992	11.596	0
19222.913	-44.004	12.631	-42.935	11.556	0
19223.038	-43.958	12.600	-42.878	11.516	0
19223.163	-43.924	12.587	-42.834	11.496	0
19223.288	-43.891	12.574	-42.791	11.476	0
19223.413	-43.857	12.561	-42.748	11.458	0
19223.538	-43.823	12.548	-42.705	11.441	0
19223.663	-43.789	12.535	-42.663	11.425	0
