Tag:	57118
Reference:	tu21_048_05
Coast Distance (km): 	30.0
Estimation Time Delay (days): 	0.0

CNES Day	Xg	Yg	Xs	Ys	Delay
20516.355	0.000	0.000	0.000	0.000	0
20516.480	-3.298	-0.733	999.000	999.000	0
20516.605	-6.596	-1.466	999.000	999.000	0
20516.730	-9.894	-2.199	999.000	999.000	0
20516.855	-13.192	-2.932	999.000	999.000	0
20516.980	-16.491	-3.664	-14.382	-4.592	0
20517.105	-18.285	-13.415	-15.791	-14.521	0
20517.230	-21.540	-18.554	-18.701	-19.831	0
20517.355	-27.167	-15.066	-24.020	-16.504	0
20517.480	-32.794	-11.578	-29.362	-13.171	0
20517.605	-38.132	-8.472	-34.432	-10.216	0
20517.730	-36.946	-13.985	-32.965	-15.875	0
20517.855	-35.760	-19.498	-31.490	-21.524	0
20517.980	-34.574	-25.011	-30.006	-27.160	0
20518.105	-34.103	-27.913	-29.226	-30.172	0
20518.230	-34.173	-28.842	-28.973	-31.199	0
20518.355	-34.243	-29.771	-28.705	-32.215	0
20518.480	-34.312	-30.699	-28.421	-33.221	0
20518.605	-34.382	-31.628	-28.122	-34.216	0
20518.730	-33.723	-30.916	-27.105	-33.577	0
20518.855	-32.851	-29.726	-25.884	-32.474	0
20518.980	-31.980	-28.536	-24.667	-31.384	0
20519.105	-31.109	-27.346	-23.456	-30.309	0
20519.230	-30.237	-26.156	-22.250	-29.248	0
20519.355	-29.366	-24.966	-21.050	-28.200	0
20519.480	-28.495	-23.777	-19.856	-27.167	0
20519.605	-27.623	-22.587	-18.667	-26.148	0
20519.730	-26.752	-21.397	-17.507	-25.153	0
20519.855	-25.881	-20.207	-16.380	-24.184	0
20519.980	-25.009	-19.017	-15.287	-23.241	0
20520.105	-24.138	-17.827	-14.229	-22.325	0
20520.230	-22.566	-14.476	-12.505	-19.272	0
20520.355	-20.910	-10.865	-10.727	-15.990	0
20520.480	-19.254	-7.254	-8.979	-12.735	0
20520.605	-17.598	-3.644	-7.262	-9.510	0
20520.730	-17.388	-0.429	-6.944	-6.661	0
20520.855	-43.160	-4.343	-32.521	-10.908	0
20520.980	-58.149	-7.013	-47.407	-13.875	0
20521.105	-31.060	-4.829	-20.222	-11.948	0
20521.230	-22.640	-2.303	-11.545	-9.650	0
20521.355	-23.197	0.386	-11.748	-7.158	0
20521.480	-23.753	3.076	-11.870	-4.635	0
20521.605	-24.310	5.765	-11.912	-2.082	0
20521.730	-24.867	8.454	-11.808	0.485	0
20521.855	-25.424	11.144	-11.552	3.066	0
20521.980	-25.981	13.833	-11.148	5.659	0
20522.105	-26.538	16.523	-10.601	8.265	0
20522.230	-26.422	17.243	-9.246	8.915	0
20522.355	-25.577	15.829	-7.038	7.445	0
20522.480	-24.731	14.415	-4.716	5.994	0
20522.605	-23.886	13.001	-2.279	4.562	0
20522.730	-23.041	11.586	0.095	3.109	0
20522.855	-22.195	10.172	2.368	1.627	0
20522.980	-21.350	8.758	4.541	0.118	0
20523.105	-20.876	7.111	6.241	-1.651	0
20523.230	-20.619	5.328	7.619	-3.584	0
20523.355	-20.362	3.545	8.887	-5.543	0
20523.480	-20.105	1.762	10.044	-7.530	0
20523.605	-19.848	-0.021	11.086	-9.543	0
20523.730	-19.591	-1.804	12.021	-11.582	0
20523.855	-19.322	-3.433	12.860	-13.497	0
20523.980	-18.980	-4.103	13.666	-14.484	0
20524.105	-18.638	-4.774	14.381	-15.502	0
20524.230	-18.296	-5.444	15.004	-16.549	0
20524.355	-17.954	-6.115	15.534	-17.626	0
20524.480	-17.613	-6.785	15.974	-18.730	0
20524.605	-17.271	-7.456	16.322	-19.862	0
20524.730	-16.929	-8.126	16.753	-20.950	0
20524.855	-16.587	-8.797	17.302	-21.978	0
20524.980	-15.859	-9.793	18.354	-23.275	0
20525.105	-14.941	-10.949	19.711	-24.673	0
20525.230	-14.023	-12.104	21.185	-26.014	0
20525.355	-13.105	-13.260	22.775	-27.298	0
20525.480	-12.187	-14.416	24.482	-28.526	0
20525.605	-11.269	-15.572	26.308	-29.699	0
20525.730	-9.973	-16.322	28.557	-30.462	0
20525.855	-5.946	-14.145	33.571	-28.303	0
20525.980	-1.920	-11.969	999.000	999.000	0
20526.105	2.107	-9.792	999.000	999.000	0
20526.230	6.133	-7.616	999.000	999.000	0
20526.355	10.070	-5.439	999.000	999.000	0
20526.480	1.725	-3.321	999.000	999.000	0
20526.605	-3.030	-2.035	999.000	999.000	0
20526.730	1.767	-2.961	999.000	999.000	0
20526.855	6.564	-3.888	999.000	999.000	0
20526.980	11.361	-4.815	999.000	999.000	0
20527.105	16.159	-5.742	999.000	999.000	0
20527.230	14.476	-6.234	999.000	999.000	0
20527.355	5.477	-6.234	999.000	999.000	0
20527.480	-0.161	-9.368	999.000	999.000	0
20527.605	-4.385	-13.660	999.000	999.000	0
20527.730	-2.442	-19.213	999.000	999.000	0
20527.855	-0.171	-22.290	999.000	999.000	0
20527.980	2.534	-22.093	999.000	999.000	0
20528.105	5.239	-21.896	999.000	999.000	0
20528.230	7.944	-21.699	999.000	999.000	0
20528.355	10.650	-21.502	999.000	999.000	0
20528.480	13.355	-21.305	999.000	999.000	0
20528.605	16.060	-21.108	999.000	999.000	0
20528.730	18.765	-20.911	999.000	999.000	0
20528.855	21.470	-20.715	999.000	999.000	0
20528.980	23.325	-28.103	999.000	999.000	0
20529.105	20.095	-31.031	999.000	999.000	0
20529.230	9.853	-27.240	999.000	999.000	0
20529.355	9.036	-25.305	999.000	999.000	0
20529.480	11.454	-24.006	999.000	999.000	0
20529.605	13.871	-22.708	999.000	999.000	0
20529.730	16.288	-21.410	999.000	999.000	0
20529.855	18.706	-20.112	999.000	999.000	0
20529.980	17.259	-20.062	999.000	999.000	0
20530.105	14.665	-20.382	999.000	999.000	0
20530.230	12.071	-20.702	999.000	999.000	0
20530.355	9.273	-20.344	999.000	999.000	0
20530.480	5.984	-18.361	999.000	999.000	0
20530.605	2.694	-16.379	999.000	999.000	0
20530.730	-0.595	-14.396	999.000	999.000	0
20530.855	-3.884	-12.414	999.000	999.000	0
20530.980	-5.871	-11.016	999.000	999.000	0
20531.105	-5.476	-10.686	999.000	999.000	0
20531.230	-5.081	-10.357	999.000	999.000	0
20531.355	-4.685	-10.027	999.000	999.000	0
20531.480	-4.290	-9.698	999.000	999.000	0
20531.605	-4.744	-9.252	999.000	999.000	0
20531.730	-7.338	-8.514	999.000	999.000	0
20531.855	-9.932	-7.775	999.000	999.000	0
20531.980	-12.526	-7.036	-40.422	-6.368	0
20532.105	-15.120	-6.298	-41.887	-5.964	0
20532.230	-17.714	-5.559	-43.308	-5.604	0
20532.355	-20.307	-4.821	-44.688	-5.290	0
20532.480	-19.504	-1.526	-42.632	-2.467	0
20532.605	-17.932	2.282	-39.720	0.821	0
20532.730	-16.908	5.099	-37.460	3.182	0
20532.855	-15.883	7.915	-35.369	5.636	0
20532.980	-14.859	10.731	-33.442	8.184	0
20533.105	-11.532	11.991	-29.376	9.270	0
20533.230	-6.797	12.300	-24.071	9.500	0
20533.355	-2.062	12.609	999.000	999.000	0
20533.480	1.033	13.321	999.000	999.000	0
20533.605	1.410	14.703	999.000	999.000	0
20533.730	-0.545	16.085	999.000	999.000	0
20533.855	-4.033	17.468	999.000	999.000	0
20533.980	-3.354	16.512	999.000	999.000	0
20534.105	-1.303	14.786	999.000	999.000	0
20534.230	0.748	13.060	999.000	999.000	0
20534.355	2.799	11.333	999.000	999.000	0
20534.480	4.850	9.607	999.000	999.000	0
20534.605	6.901	7.881	999.000	999.000	0
20534.730	7.889	6.295	999.000	999.000	0
20534.855	5.498	5.156	999.000	999.000	0
20534.980	3.107	4.017	999.000	999.000	0
20535.105	0.715	2.879	999.000	999.000	0
20535.230	-1.676	1.740	999.000	999.000	0
20535.355	-4.067	0.601	999.000	999.000	0
20535.480	-6.459	-0.538	999.000	999.000	0
20535.605	-8.850	-1.676	999.000	999.000	0
20535.730	-11.242	-2.815	999.000	999.000	0
20535.855	-13.633	-3.954	-54.147	-15.562	0
20535.980	-14.625	-4.178	-54.203	-15.868	0
20536.105	-13.999	-3.343	-52.649	-15.141	0
20536.230	-13.373	-2.508	-51.093	-14.440	0
20536.355	-12.747	-1.672	-49.531	-13.765	0
20536.480	-12.120	-0.837	-47.955	-13.116	0
20536.605	-11.494	-0.002	-46.367	-12.495	0
20536.730	-10.868	0.833	-44.750	-11.877	0
20536.855	-10.241	1.668	999.000	999.000	0
20536.980	-9.615	2.503	999.000	999.000	0
20537.105	-8.989	3.338	999.000	999.000	0
20537.230	-8.363	4.173	999.000	999.000	0
20537.355	-7.736	5.008	999.000	999.000	0
20537.480	-13.771	11.173	999.000	999.000	0
20537.605	-22.238	19.286	-95.262	43.402	0
20537.730	-19.232	17.388	-90.938	41.304	0
20537.855	-14.241	13.758	-84.623	37.498	0
20537.980	-9.250	10.128	-78.322	33.717	0
20538.105	-4.259	6.498	999.000	999.000	0
20538.230	0.732	2.868	999.000	999.000	0
20538.355	5.724	-0.762	999.000	999.000	0
20538.480	6.869	-5.179	999.000	999.000	0
20538.605	3.742	-10.468	999.000	999.000	0
20538.730	0.615	-15.758	999.000	999.000	0
20538.855	-2.511	-21.048	999.000	999.000	0
20538.980	-5.638	-26.337	999.000	999.000	0
20539.105	-8.212	-29.859	999.000	999.000	0
20539.230	-9.334	-28.736	999.000	999.000	0
20539.355	-8.819	-30.086	-64.037	17.695	0
20539.480	-5.755	-35.281	999.000	999.000	0
20539.605	-17.767	-43.292	999.000	999.000	0
20539.730	-26.888	-48.837	-89.530	0.595	0
20539.855	-22.160	-48.753	-84.248	0.506	0
20539.980	-17.433	-48.669	-78.908	0.411	0
20540.105	-12.705	-48.585	-73.518	0.308	0
20540.230	-7.978	-48.501	-68.087	0.197	0
20540.355	-3.250	-48.417	999.000	999.000	0
20540.480	1.477	-48.332	999.000	999.000	0
20540.605	5.116	-49.706	999.000	999.000	0
20540.730	8.430	-51.514	999.000	999.000	0
20540.855	7.951	-53.832	999.000	999.000	0
20540.980	7.157	-56.191	999.000	999.000	0
20541.105	6.363	-58.550	999.000	999.000	0
20541.230	5.570	-60.909	999.000	999.000	0
20541.355	4.776	-63.269	999.000	999.000	0
20541.480	6.380	-60.470	999.000	999.000	0
20541.605	8.328	-56.933	999.000	999.000	0
20541.730	10.276	-53.396	999.000	999.000	0
20541.855	12.224	-49.860	999.000	999.000	0
20541.980	14.172	-46.323	999.000	999.000	0
20542.105	16.119	-42.786	999.000	999.000	0
20542.230	17.902	-39.001	999.000	999.000	0
20542.355	19.391	-34.773	999.000	999.000	0
20542.480	18.666	-30.436	999.000	999.000	0
20542.605	15.639	-25.984	999.000	999.000	0
20542.730	12.611	-21.531	999.000	999.000	0
20542.855	10.147	-18.389	999.000	999.000	0
20542.980	8.666	-17.528	999.000	999.000	0
20543.105	7.184	-16.668	999.000	999.000	0
20543.230	5.703	-15.807	999.000	999.000	0
20543.355	4.222	-14.946	999.000	999.000	0
20543.480	2.740	-14.086	999.000	999.000	0
20543.605	1.259	-13.225	999.000	999.000	0
20543.730	-0.223	-12.365	999.000	999.000	0
20543.855	-1.704	-11.504	999.000	999.000	0
20543.980	-3.186	-10.644	999.000	999.000	0
20544.105	-7.280	-10.885	999.000	999.000	0
20544.230	-10.430	-9.131	999.000	999.000	0
20544.355	-13.579	-7.378	-180.075	52.972	0
20544.480	-16.729	-5.624	-183.568	54.554	0
20544.605	-19.878	-3.871	-187.138	56.120	0
20544.730	-23.028	-2.117	-190.508	57.699	0
20544.855	-26.177	-0.364	-193.639	59.298	0
20544.980	-27.370	3.238	-194.588	62.763	0
20545.105	-26.404	8.881	-193.156	68.289	0
20545.230	-25.438	14.523	-191.495	73.836	0
20545.355	-24.472	20.166	-189.616	79.406	0
20545.480	-23.505	25.809	-187.531	85.001	0
20545.605	-22.539	31.451	-185.254	90.622	0
20545.730	-21.828	36.742	-183.311	95.859	0
20545.855	-31.417	27.806	-191.815	86.821	0
20545.980	-41.006	18.871	-200.675	77.716	0
20546.105	-50.595	9.936	-209.840	68.557	0
20546.230	-60.184	1.001	-219.245	59.358	0
20546.355	-69.773	-7.935	-228.755	50.140	0
20546.480	-74.527	-10.551	-233.464	47.210	0
20546.605	-78.838	-12.590	-237.816	44.815	0
20546.730	-83.150	-14.629	-242.222	42.379	0
20546.855	-87.960	-14.267	-247.186	42.303	0
20546.980	-93.123	-12.205	-252.579	43.886	0
20547.105	-98.286	-10.143	-258.052	45.436	0
20547.230	-103.448	-8.082	-263.586	46.960	0
20547.355	-108.611	-6.020	-269.172	48.460	0
20547.480	-113.774	-3.958	-274.794	49.939	0
20547.605	-118.891	-1.998	-280.394	51.299	0
20547.730	-123.183	-1.881	-284.974	50.895	0
20547.855	-127.475	-1.764	-289.365	50.576	0
20547.980	-131.767	-1.648	-293.588	50.335	0
20548.105	-136.059	-1.531	-297.658	50.167	0
20548.230	-140.351	-1.414	-301.596	50.066	0
20548.355	-144.643	-1.297	-305.425	50.026	0
20548.480	-149.600	-1.703	-309.830	49.518	0
20548.605	-155.611	-2.938	-315.226	48.227	0
20548.730	-161.623	-4.173	-320.587	46.939	0
20548.855	-167.634	-5.409	-325.910	45.646	0
20548.980	-173.646	-6.644	-331.193	44.347	0
20549.105	-179.657	-7.879	-336.437	43.043	0
20549.230	-185.669	-9.114	-341.641	41.734	0
20549.355	-190.726	-9.958	-345.854	40.815	0
20549.480	-195.217	-10.569	-349.461	40.128	0
20549.605	-199.708	-11.180	-353.030	39.440	0
20549.730	-204.199	-11.791	-356.445	38.719	0
20549.855	-211.049	-16.933	-362.051	33.433	0
20549.980	-217.938	-22.149	-367.566	28.040	0
20550.105	-224.826	-27.364	-372.953	22.618	0
20550.230	-231.714	-32.580	-378.205	17.177	0
20550.355	-238.603	-37.796	-383.300	11.727	0
20550.480	-245.491	-43.012	-388.213	6.282	0
20550.605	-250.067	-46.980	-390.651	2.068	0
20550.730	-254.045	-50.627	-392.565	-1.820	0
20550.855	-258.023	-54.273	-394.596	-5.702	0
20550.980	-262.001	-57.920	-396.745	-9.579	0
20551.105	-265.979	-61.566	-399.008	-13.455	0
20551.230	-272.603	-67.965	-404.032	-20.085	0
20551.355	-282.818	-78.089	-412.766	-30.448	0
20551.480	-289.404	-83.371	-418.026	-35.999	0
20551.605	-300.936	-90.688	-428.323	-43.607	0
20551.730	-323.843	-102.683	-449.993	-55.925	0
20551.855	-333.227	-108.753	-458.144	-62.365	0
20551.980	-335.660	-111.777	-459.327	-65.792	0
20552.105	-338.093	-114.802	-460.487	-69.243	0
20552.230	-340.525	-117.826	-461.622	-72.722	0
20552.355	-342.958	-120.850	-462.730	-76.226	0
20552.480	-345.391	-123.874	-463.813	-79.756	0
20552.605	-347.824	-126.898	-464.876	-83.309	0
20552.730	-350.257	-129.922	-465.924	-86.885	0
20552.855	-352.689	-132.946	-466.957	-90.482	0
20552.980	-355.122	-135.970	-467.976	-94.102	0
20553.105	-357.555	-138.994	-468.982	-97.744	0
20553.230	-359.988	-142.018	-469.973	-101.409	0
20553.355	-362.421	-145.043	-470.950	-105.099	0
20553.480	-364.853	-148.067	-471.911	-108.815	0
20553.605	-367.286	-151.091	-472.857	-112.557	0
20553.730	-369.544	-155.862	-473.695	-118.090	0
20553.855	-371.754	-161.101	-474.555	-124.141	0
20553.980	-373.965	-166.340	-475.484	-130.247	0
20554.105	-376.565	-171.462	999.000	999.000	0
20554.230	-382.232	-175.672	999.000	999.000	0
20554.355	-385.225	-177.630	999.000	999.000	0
20554.480	-387.268	-178.789	999.000	999.000	0
20554.605	-389.310	-179.947	999.000	999.000	0
20554.730	-392.220	-181.686	999.000	999.000	0
20554.855	-404.312	-189.569	999.000	999.000	0
20554.980	-413.056	-195.120	999.000	999.000	0
20555.105	-419.848	-199.312	999.000	999.000	0
20555.230	-426.305	-203.529	999.000	999.000	0
20555.355	-432.471	-207.769	-529.365	-190.071	0
20555.480	-438.636	-212.009	-534.047	-195.444	0
20555.605	-444.802	-216.249	-538.505	-200.742	0
20555.730	-450.967	-220.489	-542.941	-205.976	0
20555.855	-457.133	-224.729	-547.398	-211.153	0
20555.980	-466.997	-230.039	-555.574	-217.345	0
20556.105	-489.072	-238.883	-576.004	-226.991	0
20556.230	-499.563	-245.701	-584.958	-234.459	0
20556.355	-504.712	-251.584	-588.611	-240.900	0
20556.480	-509.860	-257.467	-592.268	-247.273	0
20556.605	-515.009	-263.350	-595.931	-253.578	0
20556.730	-520.158	-269.234	-599.611	-259.848	0
20556.855	-525.306	-275.117	-603.319	-266.085	0
20556.980	-530.455	-281.000	-607.051	-272.293	0
20557.105	-535.603	-286.883	-610.804	-278.472	0
20557.230	-540.752	-292.766	-614.575	-284.626	0
20557.355	-545.900	-298.649	-618.356	-290.760	0
20557.480	-551.049	-304.532	-622.147	-296.878	0
20557.605	-556.198	-310.415	-625.963	-302.982	0
20557.730	-561.346	-316.298	-629.784	-309.067	0
20557.855	-566.495	-322.181	-633.603	-315.134	0
20557.980	-571.643	-328.064	-637.420	-321.181	0
20558.105	-576.792	-333.947	-641.236	-327.211	0
20558.230	-581.941	-339.831	-645.050	-333.227	0
20558.355	-586.173	-345.406	-647.956	-338.924	0
20558.480	-590.344	-349.938	-650.817	-343.574	0
20558.605	-595.491	-351.576	-654.664	-345.327	0
20558.730	-600.638	-353.214	-658.519	-347.085	0
20558.855	-605.786	-354.852	-662.385	-348.850	0
20558.980	-610.933	-356.491	-666.259	-350.623	0
20559.105	-616.080	-358.129	-670.137	-352.410	0
20559.230	-621.228	-359.767	-674.006	-354.216	0
20559.355	-626.375	-361.405	-677.860	-356.044	0
20559.480	-631.522	-363.044	-681.692	-357.897	0
20559.605	-636.669	-364.682	-685.493	-359.777	0
20559.730	-642.046	-366.320	-689.492	-361.706	0
20559.855	-648.439	-367.958	-694.478	-363.681	0
20559.980	-654.832	-369.595	-699.445	-365.707	0
20560.105	-661.224	-371.232	-704.419	-367.796	0
20560.230	-667.617	-372.870	-709.396	-369.944	0
20560.355	-674.010	-374.507	-714.372	-372.150	0
20560.480	-680.402	-376.144	-719.348	-374.411	0
20560.605	-688.410	-378.819	-725.941	-377.758	0
20560.730	-696.839	-381.764	-733.015	-381.348	0
20560.855	-705.267	-384.709	-740.160	-384.896	0
20560.980	-713.695	-387.653	-747.375	-388.398	0
20561.105	-722.124	-390.598	-754.659	-391.850	0
20561.230	-730.552	-393.542	-762.010	-395.249	0
20561.355	-738.980	-396.487	-769.420	-398.592	0
20561.480	-747.409	-399.432	-776.893	-401.886	0
20561.605	-755.883	-402.457	-784.480	-405.221	0
20561.730	-764.471	-405.681	-792.211	-408.758	0
20561.855	-773.059	-408.905	-799.964	-412.307	0
20561.980	-781.647	-412.130	-807.741	-415.871	0
20562.105	-786.492	-416.908	-811.795	-421.010	0
20562.230	-789.110	-421.048	-813.646	-425.519	0
20562.355	-792.289	-422.338	-816.078	-427.184	0
20562.480	-795.468	-423.628	-818.520	-428.855	0
20562.605	-798.647	-424.919	-820.970	-430.535	0
20562.730	-805.380	-427.401	-826.962	-433.419	0
20562.855	-812.803	-430.114	-833.634	-436.559	0
20562.980	-820.225	-432.827	-840.295	-439.721	0
20563.105	-827.648	-435.540	-846.947	-442.903	0
20563.230	-835.071	-438.254	-853.590	-446.102	0
20563.355	-842.494	-440.967	-860.222	-449.315	0
20563.480	-849.917	-443.680	-866.844	-452.541	0
20563.605	-857.340	-446.393	-873.455	-455.780	0
20563.730	-864.762	-449.106	-880.025	-459.073	0
20563.855	-872.185	-451.819	-886.552	-462.426	0
20563.980	-879.608	-454.533	-893.043	-465.836	0
20564.105	-886.608	-456.790	-899.075	-468.843	0
20564.230	-891.742	-457.040	-903.205	-469.889	0
20564.355	-896.875	-457.290	-907.289	-470.980	0
20564.480	-902.009	-457.540	-911.328	-472.112	0
20564.605	-907.143	-457.790	-915.322	-473.282	0
20564.730	-912.321	-457.842	-919.394	-474.277	0
20564.855	-917.611	-457.395	-923.624	-474.793	0
20564.980	-923.500	-458.162	-928.494	-476.543	0
20565.105	-929.549	-459.253	-933.565	-478.631	0
20565.230	-935.598	-460.343	-938.673	-480.731	0
20565.355	-941.647	-461.434	-943.810	-482.841	0
20565.480	-947.696	-462.524	-948.970	-484.959	0
20565.605	-953.745	-463.615	-954.128	-487.075	0
20565.730	-959.793	-464.705	-959.187	-489.160	0
20565.855	-965.842	-465.796	-964.147	-491.213	0
20565.980	-971.891	-466.886	-969.023	-493.240	0
20566.105	-977.940	-467.977	-973.828	-495.244	0
20566.230	-983.989	-469.067	-978.577	-497.229	0
20566.355	-990.038	-470.158	-983.284	-499.199	0
20566.480	-996.087	-471.248	-987.959	-501.157	0
20566.605	-1002.135	-472.339	-992.603	-503.105	0
20566.730	-1008.184	-473.429	-997.261	-505.074	0
20566.855	-1014.233	-474.520	-1001.941	-507.070	0
20566.980	-1020.282	-475.610	-1006.642	-509.094	0
20567.105	-1026.331	-476.701	999.000	999.000	0
20567.230	-1028.523	-477.611	999.000	999.000	0
20567.355	-1022.253	-478.128	999.000	999.000	0
20567.480	-1018.940	-479.855	999.000	999.000	0
20567.605	-1016.753	-481.872	999.000	999.000	0
20567.730	-1023.547	-483.743	-1039.534	-526.632	0
20567.855	-1030.341	-485.614	999.000	999.000	0
20567.980	-1037.135	-487.485	999.000	999.000	0
20568.105	-1043.929	-489.356	999.000	999.000	0
20568.230	-1050.723	-491.227	999.000	999.000	0
20568.355	-1057.517	-493.098	999.000	999.000	0
20568.480	-1064.311	-494.969	-1072.505	-543.962	0
20568.605	-1071.106	-496.840	-1078.002	-546.844	0
20568.730	-1075.639	-498.293	-1081.281	-549.281	0
20568.855	-1078.978	-499.525	-1083.404	-551.471	0
20568.980	-1082.317	-500.758	-1085.561	-553.636	0
20569.105	-1085.656	-501.990	-1087.751	-555.776	0
20569.230	-1088.994	-503.223	-1089.976	-557.890	0
20569.355	-1092.233	-503.147	-1092.138	-558.670	0
20569.480	-1095.425	-502.472	-1094.272	-558.831	0
20569.605	-1098.618	-501.797	-1096.417	-558.972	0
20569.730	-1101.811	-501.123	-1098.539	-559.106	0
20569.855	-1105.003	-500.448	-1100.631	-559.238	0
20569.980	-1108.196	-499.773	-1102.691	-559.367	0
20570.105	-1111.388	-499.099	-1104.719	-559.493	0
20570.230	-1114.581	-498.424	-1106.714	-559.616	0
20570.355	-1117.774	-497.749	-1108.675	-559.737	0
20570.480	-1120.966	-497.075	-1110.603	-559.854	0
20570.605	-1124.159	-496.400	-1112.496	-559.968	0
20570.730	-1127.351	-495.725	-1114.387	-560.071	0
20570.855	-1131.537	-497.816	-1117.274	-562.928	0
20570.980	-1135.752	-499.990	-1120.243	-565.842	0
20571.105	-1139.967	-502.165	-1123.261	-568.731	0
20571.230	-1144.183	-504.339	-1126.332	-571.595	0
20571.355	-1148.398	-506.514	-1129.455	-574.436	0
20571.480	-1152.614	-508.689	-1132.630	-577.256	0
20571.605	-1157.123	-509.882	-1136.153	-579.075	0
20571.730	-1162.267	-508.948	-1140.314	-578.774	0
20571.855	-1167.412	-508.015	-1144.437	-578.491	0
