Tag:	57949
Reference:	tu26_B_05
Coast Distance (km): 	30.0
Estimation Time Delay (days): 	0.0

CNES Day	Xg	Yg	Xs	Ys	Delay
20252.883	0.000	0.000	0.000	0.000	0
20253.008	-0.941	2.918	999.000	999.000	0
20253.133	-1.883	5.837	999.000	999.000	0
20253.258	-2.824	8.755	999.000	999.000	0
20253.383	-3.766	11.673	999.000	999.000	0
20253.508	-4.173	13.717	999.000	999.000	0
20253.633	-3.138	13.396	999.000	999.000	0
20253.758	-2.102	13.076	999.000	999.000	0
20253.883	-1.066	12.755	999.000	999.000	0
20254.008	-0.031	12.435	999.000	999.000	0
20254.133	1.005	12.114	999.000	999.000	0
20254.258	2.040	11.794	999.000	999.000	0
20254.383	3.076	11.473	999.000	999.000	0
20254.508	4.112	11.153	999.000	999.000	0
20254.633	5.147	10.832	999.000	999.000	0
20254.758	6.183	10.511	999.000	999.000	0
20254.883	7.218	10.191	999.000	999.000	0
20255.008	8.254	9.870	999.000	999.000	0
20255.133	9.290	9.550	999.000	999.000	0
20255.258	10.325	9.229	999.000	999.000	0
20255.383	11.361	8.909	999.000	999.000	0
20255.508	12.396	8.588	999.000	999.000	0
20255.633	13.432	8.268	999.000	999.000	0
20255.758	14.468	7.947	999.000	999.000	0
20255.883	15.503	7.627	999.000	999.000	0
20256.008	16.539	7.306	999.000	999.000	0
20256.133	17.575	6.985	999.000	999.000	0
20256.258	18.610	6.665	999.000	999.000	0
20256.383	19.646	6.344	999.000	999.000	0
20256.508	20.681	6.024	999.000	999.000	0
20256.633	21.717	5.703	999.000	999.000	0
20256.758	22.753	5.383	999.000	999.000	0
20256.883	23.788	5.062	999.000	999.000	0
20257.008	24.824	4.742	999.000	999.000	0
20257.133	25.859	4.421	999.000	999.000	0
20257.258	26.895	4.101	999.000	999.000	0
20257.383	27.931	3.780	999.000	999.000	0
20257.508	28.966	3.459	999.000	999.000	0
20257.633	30.002	3.139	999.000	999.000	0
20257.758	31.037	2.818	999.000	999.000	0
20257.883	32.073	2.498	999.000	999.000	0
20258.008	33.109	2.177	999.000	999.000	0
20258.133	34.144	1.857	999.000	999.000	0
20258.258	35.180	1.536	999.000	999.000	0
20258.383	36.216	1.216	999.000	999.000	0
20258.508	37.251	0.895	999.000	999.000	0
20258.633	38.287	0.575	999.000	999.000	0
20258.758	39.322	0.254	999.000	999.000	0
20258.883	40.358	-0.067	999.000	999.000	0
20259.008	41.394	-0.387	999.000	999.000	0
20259.133	42.429	-0.708	999.000	999.000	0
20259.258	43.465	-1.028	999.000	999.000	0
20259.383	44.500	-1.349	999.000	999.000	0
20259.508	45.536	-1.669	999.000	999.000	0
20259.633	46.572	-1.990	999.000	999.000	0
20259.758	47.607	-2.310	999.000	999.000	0
20259.883	48.643	-2.631	999.000	999.000	0
20260.008	49.678	-2.951	999.000	999.000	0
20260.133	50.714	-3.272	999.000	999.000	0
20260.258	51.750	-3.593	999.000	999.000	0
20260.383	52.785	-3.913	999.000	999.000	0
20260.508	53.821	-4.234	999.000	999.000	0
20260.633	54.857	-4.554	999.000	999.000	0
20260.758	55.892	-4.875	999.000	999.000	0
20260.883	56.928	-5.195	999.000	999.000	0
20261.008	57.490	-5.522	999.000	999.000	0
20261.133	55.903	-5.880	999.000	999.000	0
20261.258	54.316	-6.239	999.000	999.000	0
20261.383	52.729	-6.597	999.000	999.000	0
20261.508	51.143	-6.955	999.000	999.000	0
20261.633	49.556	-7.313	999.000	999.000	0
20261.758	47.969	-7.671	999.000	999.000	0
20261.883	46.382	-8.029	999.000	999.000	0
20262.008	44.796	-8.387	999.000	999.000	0
20262.133	43.209	-8.745	999.000	999.000	0
20262.258	41.622	-9.103	999.000	999.000	0
20262.383	40.035	-9.461	999.000	999.000	0
20262.508	39.158	-9.556	999.000	999.000	0
20262.633	38.622	-9.525	999.000	999.000	0
20262.758	38.085	-9.495	999.000	999.000	0
20262.883	37.549	-9.464	999.000	999.000	0
20263.008	37.012	-9.433	999.000	999.000	0
20263.133	36.476	-9.403	999.000	999.000	0
20263.258	35.939	-9.372	999.000	999.000	0
20263.383	35.403	-9.341	999.000	999.000	0
20263.508	34.867	-9.311	999.000	999.000	0
20263.633	34.330	-9.280	999.000	999.000	0
20263.758	33.794	-9.249	999.000	999.000	0
20263.883	33.257	-9.219	999.000	999.000	0
20264.008	32.721	-9.188	999.000	999.000	0
20264.133	32.184	-9.157	999.000	999.000	0
20264.258	31.648	-9.127	999.000	999.000	0
20264.383	31.112	-9.096	999.000	999.000	0
20264.508	30.575	-9.065	999.000	999.000	0
20264.633	30.039	-9.035	999.000	999.000	0
20264.758	29.502	-9.004	999.000	999.000	0
20264.883	28.966	-8.973	999.000	999.000	0
20265.008	28.429	-8.943	999.000	999.000	0
20265.133	27.893	-8.912	999.000	999.000	0
20265.258	27.292	-8.418	999.000	999.000	0
20265.383	26.684	-7.866	999.000	999.000	0
20265.508	26.075	-7.314	999.000	999.000	0
20265.633	25.467	-6.761	999.000	999.000	0
20265.758	24.858	-6.209	999.000	999.000	0
20265.883	24.250	-5.657	999.000	999.000	0
20266.008	23.641	-5.105	999.000	999.000	0
20266.133	23.032	-4.553	999.000	999.000	0
20266.258	22.424	-4.000	999.000	999.000	0
20266.383	21.823	-3.460	999.000	999.000	0
20266.508	21.923	-3.992	999.000	999.000	0
20266.633	22.022	-4.525	999.000	999.000	0
20266.758	22.122	-5.057	999.000	999.000	0
20266.883	22.222	-5.589	999.000	999.000	0
20267.008	22.322	-6.122	999.000	999.000	0
20267.133	22.422	-6.654	999.000	999.000	0
20267.258	22.521	-7.186	999.000	999.000	0
20267.383	22.621	-7.719	999.000	999.000	0
20267.508	22.721	-8.251	999.000	999.000	0
20267.633	22.821	-8.783	999.000	999.000	0
20267.758	25.014	-10.372	999.000	999.000	0
20267.883	25.729	-9.229	999.000	999.000	0
20268.008	24.048	-3.778	999.000	999.000	0
20268.133	22.367	1.674	999.000	999.000	0
20268.258	20.686	7.126	999.000	999.000	0
20268.383	19.005	12.577	999.000	999.000	0
20268.508	17.324	18.029	999.000	999.000	0
20268.633	15.642	23.480	999.000	999.000	0
20268.758	18.129	19.042	999.000	999.000	0
20268.883	23.755	7.153	999.000	999.000	0
20269.008	29.382	-4.737	999.000	999.000	0
20269.133	33.833	-13.527	999.000	999.000	0
20269.258	34.690	-12.841	999.000	999.000	0
20269.383	35.548	-12.155	999.000	999.000	0
20269.508	36.406	-11.469	999.000	999.000	0
20269.633	37.263	-10.783	999.000	999.000	0
20269.758	38.143	-10.218	999.000	999.000	0
20269.883	39.413	-11.778	999.000	999.000	0
20270.008	40.682	-13.338	999.000	999.000	0
20270.133	41.952	-14.898	999.000	999.000	0
20270.258	40.489	-14.335	999.000	999.000	0
20270.383	38.985	-13.742	999.000	999.000	0
20270.508	37.481	-13.148	999.000	999.000	0
20270.633	35.978	-12.555	999.000	999.000	0
20270.758	34.474	-11.961	999.000	999.000	0
20270.883	32.971	-11.368	999.000	999.000	0
20271.008	31.467	-10.774	999.000	999.000	0
20271.133	29.964	-10.180	999.000	999.000	0
20271.258	29.703	-9.715	999.000	999.000	0
20271.383	30.477	-9.357	999.000	999.000	0
20271.508	31.252	-8.999	999.000	999.000	0
20271.633	32.027	-8.640	999.000	999.000	0
20271.758	32.801	-8.282	999.000	999.000	0
20271.883	33.576	-7.924	999.000	999.000	0
20272.008	34.351	-7.566	999.000	999.000	0
20272.133	35.125	-7.207	999.000	999.000	0
20272.258	35.900	-6.849	999.000	999.000	0
20272.383	36.675	-6.491	999.000	999.000	0
20272.508	37.449	-6.133	999.000	999.000	0
20272.633	38.483	-5.957	999.000	999.000	0
20272.758	44.481	-9.276	999.000	999.000	0
20272.883	48.711	-11.348	999.000	999.000	0
20273.008	41.892	-5.626	999.000	999.000	0
20273.133	35.072	0.097	999.000	999.000	0
20273.258	28.253	5.820	999.000	999.000	0
20273.383	21.434	11.543	999.000	999.000	0
20273.508	14.614	17.266	999.000	999.000	0
20273.633	7.795	22.989	999.000	999.000	0
20273.758	8.531	21.470	999.000	999.000	0
20273.883	13.499	15.896	999.000	999.000	0
20274.008	18.467	10.321	999.000	999.000	0
20274.133	23.436	4.747	999.000	999.000	0
20274.258	28.404	-0.827	999.000	999.000	0
20274.383	33.372	-6.402	999.000	999.000	0
20274.508	38.297	-11.760	999.000	999.000	0
20274.633	41.885	-10.361	999.000	999.000	0
20274.758	44.217	-9.484	999.000	999.000	0
20274.883	41.540	-10.683	999.000	999.000	0
20275.008	38.863	-11.882	999.000	999.000	0
20275.133	36.186	-13.081	999.000	999.000	0
20275.258	33.509	-14.281	999.000	999.000	0
20275.383	30.836	-15.476	999.000	999.000	0
20275.508	29.606	-15.183	999.000	999.000	0
20275.633	28.376	-14.890	999.000	999.000	0
20275.758	27.147	-14.596	999.000	999.000	0
20275.883	25.917	-14.303	999.000	999.000	0
20276.008	24.687	-14.009	999.000	999.000	0
20276.133	23.457	-13.716	999.000	999.000	0
20276.258	22.227	-13.422	999.000	999.000	0
20276.383	21.043	-13.124	999.000	999.000	0
20276.508	21.051	-12.704	999.000	999.000	0
20276.633	21.059	-12.284	999.000	999.000	0
20276.758	21.068	-11.863	999.000	999.000	0
20276.883	21.076	-11.443	999.000	999.000	0
20277.008	21.084	-11.023	999.000	999.000	0
20277.133	21.093	-10.602	999.000	999.000	0
20277.258	21.101	-10.182	999.000	999.000	0
20277.383	21.109	-9.762	999.000	999.000	0
20277.508	21.118	-9.341	999.000	999.000	0
20277.633	21.126	-8.921	999.000	999.000	0
20277.758	21.134	-8.501	999.000	999.000	0
20277.883	21.143	-8.080	999.000	999.000	0
20278.008	21.151	-7.660	999.000	999.000	0
20278.133	21.159	-7.240	999.000	999.000	0
20278.258	21.168	-6.819	999.000	999.000	0
20278.383	21.176	-6.399	999.000	999.000	0
20278.508	21.184	-5.979	999.000	999.000	0
20278.633	21.193	-5.558	999.000	999.000	0
20278.758	21.201	-5.138	999.000	999.000	0
20278.883	21.209	-4.718	999.000	999.000	0
20279.008	21.217	-4.297	999.000	999.000	0
20279.133	21.226	-3.877	999.000	999.000	0
20279.258	21.234	-3.457	999.000	999.000	0
20279.383	21.242	-3.036	999.000	999.000	0
20279.508	21.251	-2.616	999.000	999.000	0
20279.633	21.259	-2.196	999.000	999.000	0
20279.758	23.886	-3.892	999.000	999.000	0
20279.883	33.029	-10.855	999.000	999.000	0
20280.008	39.154	-15.123	999.000	999.000	0
20280.133	41.564	-16.072	999.000	999.000	0
20280.258	38.152	-12.810	999.000	999.000	0
20280.383	38.089	-10.759	999.000	999.000	0
20280.508	45.111	-11.589	999.000	999.000	0
20280.633	52.133	-12.419	999.000	999.000	0
20280.758	59.155	-13.249	999.000	999.000	0
20280.883	66.177	-14.079	999.000	999.000	0
20281.008	69.324	-15.133	999.000	999.000	0
20281.133	66.381	-16.537	999.000	999.000	0
20281.258	63.137	-14.490	999.000	999.000	0
20281.383	59.779	-11.132	999.000	999.000	0
20281.508	64.405	-10.347	999.000	999.000	0
20281.633	70.606	-10.070	999.000	999.000	0
20281.758	76.807	-9.793	999.000	999.000	0
20281.883	76.958	-9.647	999.000	999.000	0
20282.008	73.431	-9.581	999.000	999.000	0
20282.133	69.905	-9.514	999.000	999.000	0
20282.258	67.087	-9.521	999.000	999.000	0
20282.383	66.127	-9.721	999.000	999.000	0
20282.508	65.168	-9.920	999.000	999.000	0
20282.633	64.209	-10.120	999.000	999.000	0
20282.758	63.250	-10.320	999.000	999.000	0
20282.883	62.290	-10.520	999.000	999.000	0
20283.008	61.331	-10.719	999.000	999.000	0
20283.133	60.372	-10.919	999.000	999.000	0
20283.258	59.413	-11.119	999.000	999.000	0
20283.383	58.453	-11.318	999.000	999.000	0
20283.508	57.494	-11.518	999.000	999.000	0
20283.633	56.535	-11.718	999.000	999.000	0
20283.758	55.576	-11.917	999.000	999.000	0
20283.883	54.616	-12.117	999.000	999.000	0
20284.008	53.657	-12.317	999.000	999.000	0
20284.133	52.698	-12.516	999.000	999.000	0
20284.258	51.739	-12.716	999.000	999.000	0
20284.383	50.779	-12.916	999.000	999.000	0
20284.508	49.820	-13.116	999.000	999.000	0
20284.633	48.861	-13.315	999.000	999.000	0
20284.758	47.902	-13.515	999.000	999.000	0
20284.883	46.942	-13.715	999.000	999.000	0
20285.008	45.983	-13.914	999.000	999.000	0
20285.133	45.024	-14.114	999.000	999.000	0
20285.258	44.065	-14.314	999.000	999.000	0
20285.383	43.105	-14.513	999.000	999.000	0
20285.508	42.146	-14.713	999.000	999.000	0
20285.633	41.187	-14.913	999.000	999.000	0
20285.758	40.228	-15.112	999.000	999.000	0
20285.883	40.231	-14.737	999.000	999.000	0
20286.008	40.410	-14.257	999.000	999.000	0
20286.133	40.590	-13.777	999.000	999.000	0
20286.258	40.769	-13.297	999.000	999.000	0
20286.383	40.949	-12.816	999.000	999.000	0
20286.508	41.128	-12.336	999.000	999.000	0
20286.633	41.308	-11.856	999.000	999.000	0
20286.758	41.487	-11.375	999.000	999.000	0
20286.883	41.667	-10.895	999.000	999.000	0
20287.008	41.846	-10.415	999.000	999.000	0
20287.133	42.026	-9.935	999.000	999.000	0
20287.258	42.205	-9.454	999.000	999.000	0
20287.383	42.385	-8.974	999.000	999.000	0
20287.508	42.564	-8.494	999.000	999.000	0
20287.633	42.744	-8.013	999.000	999.000	0
20287.758	42.923	-7.533	999.000	999.000	0
20287.883	43.103	-7.053	999.000	999.000	0
20288.008	43.282	-6.573	999.000	999.000	0
20288.133	43.462	-6.092	999.000	999.000	0
20288.258	43.641	-5.612	999.000	999.000	0
20288.383	43.821	-5.132	999.000	999.000	0
20288.508	44.000	-4.652	999.000	999.000	0
20288.633	44.180	-4.171	999.000	999.000	0
20288.758	44.359	-3.691	999.000	999.000	0
20288.883	44.407	-3.264	999.000	999.000	0
20289.008	41.444	-4.062	999.000	999.000	0
20289.133	38.481	-4.859	999.000	999.000	0
20289.258	35.518	-5.656	999.000	999.000	0
20289.383	32.555	-6.453	999.000	999.000	0
20289.508	29.592	-7.251	999.000	999.000	0
20289.633	26.629	-8.048	999.000	999.000	0
20289.758	23.666	-8.845	999.000	999.000	0
20289.883	20.702	-9.642	999.000	999.000	0
20290.008	17.283	-8.556	999.000	999.000	0
20290.133	13.632	-6.517	999.000	999.000	0
20290.258	9.982	-4.478	999.000	999.000	0
20290.383	7.269	-2.781	999.000	999.000	0
20290.508	6.976	-1.968	999.000	999.000	0
20290.633	6.682	-1.154	999.000	999.000	0
20290.758	6.389	-0.341	999.000	999.000	0
20290.883	6.096	0.472	999.000	999.000	0
20291.008	5.802	1.286	999.000	999.000	0
20291.133	5.509	2.099	999.000	999.000	0
20291.258	5.216	2.912	999.000	999.000	0
20291.383	4.922	3.726	999.000	999.000	0
20291.508	5.318	2.571	999.000	999.000	0
20291.633	5.766	1.269	999.000	999.000	0
20291.758	6.213	-0.032	999.000	999.000	0
20291.883	6.660	-1.333	999.000	999.000	0
20292.008	7.107	-2.634	999.000	999.000	0
20292.133	7.554	-3.935	999.000	999.000	0
20292.258	8.002	-5.236	999.000	999.000	0
20292.383	8.449	-6.538	999.000	999.000	0
20292.508	14.490	-7.860	999.000	999.000	0
20292.633	22.730	-9.190	999.000	999.000	0
20292.758	30.970	-10.520	999.000	999.000	0
20292.883	38.186	-12.039	999.000	999.000	0
20293.008	42.849	-14.032	999.000	999.000	0
20293.133	47.513	-16.024	999.000	999.000	0
20293.258	52.177	-18.017	999.000	999.000	0
20293.383	56.840	-20.009	999.000	999.000	0
20293.508	62.423	-19.924	999.000	999.000	0
20293.633	71.633	-11.635	999.000	999.000	0
20293.758	81.474	-6.669	999.000	999.000	0
20293.883	92.307	-6.923	999.000	999.000	0
20294.008	98.599	-4.763	999.000	999.000	0
20294.133	102.986	-0.915	999.000	999.000	0
20294.258	109.499	3.747	999.000	999.000	0
20294.383	116.013	8.410	999.000	999.000	0
20294.508	122.527	13.072	999.000	999.000	0
20294.633	132.303	16.790	999.000	999.000	0
20294.758	142.478	20.394	999.000	999.000	0
20294.883	152.652	23.998	999.000	999.000	0
20295.008	162.826	27.602	999.000	999.000	0
20295.133	173.000	31.206	999.000	999.000	0
20295.258	180.662	34.989	999.000	999.000	0
20295.383	187.792	38.810	999.000	999.000	0
20295.508	194.923	42.630	999.000	999.000	0
20295.633	202.054	46.451	999.000	999.000	0
20295.758	209.184	50.272	999.000	999.000	0
20295.883	216.315	54.093	999.000	999.000	0
20296.008	223.445	57.914	999.000	999.000	0
20296.133	230.576	61.735	999.000	999.000	0
20296.258	237.707	65.555	999.000	999.000	0
20296.383	244.837	69.376	999.000	999.000	0
20296.508	251.968	73.197	999.000	999.000	0
20296.633	259.098	77.018	999.000	999.000	0
20296.758	266.229	80.839	999.000	999.000	0
20296.883	271.713	82.669	999.000	999.000	0
20297.008	275.796	82.805	999.000	999.000	0
20297.133	282.850	86.952	999.000	999.000	0
20297.258	290.218	91.524	999.000	999.000	0
20297.383	297.586	96.095	999.000	999.000	0
20297.508	304.955	100.667	1019.382	2552.561	0
20297.633	312.323	105.239	1022.364	2559.810	0
20297.758	319.691	109.810	1026.216	2566.785	0
20297.883	327.060	114.382	1030.829	2573.445	0
20298.008	334.428	118.953	1036.107	2579.744	0
20298.133	341.796	123.525	1041.943	2585.642	0
20298.258	349.164	128.097	1048.152	2591.117	0
20298.383	356.533	132.668	1054.461	2596.245	0
20298.508	363.901	137.240	1060.904	2601.105	0
20298.633	371.269	141.812	1067.500	2605.748	0
20298.758	378.638	146.383	1074.257	2610.192	0
20298.883	386.006	150.955	1081.147	2614.465	0
20299.008	393.374	155.527	1088.152	2618.625	0
20299.133	399.959	160.534	1094.475	2623.127	0
20299.258	405.062	166.366	1099.414	2628.375	0
20299.383	410.165	172.198	1104.451	2633.559	0
20299.508	415.268	178.030	1109.654	2638.744	0
20299.633	420.371	183.862	1115.032	2643.934	0
20299.758	425.474	189.694	1120.514	2649.215	0
20299.883	430.577	195.526	1126.091	2654.582	0
20300.008	435.680	201.358	1131.757	2660.031	0
20300.133	440.783	207.190	1137.506	2665.558	0
20300.258	445.886	213.022	1143.377	2671.172	0
20300.383	450.989	218.854	1149.400	2676.888	0
20300.508	456.092	224.686	1155.570	2682.715	0
20300.633	461.195	230.518	1161.900	2688.697	0
20300.758	466.298	236.350	1168.433	2694.777	0
20300.883	471.401	242.182	1175.163	2700.947	0
20301.008	476.504	248.014	1182.090	2707.196	0
20301.133	481.607	253.846	1189.201	2713.513	0
20301.258	486.710	259.678	1196.497	2719.897	0
20301.383	491.754	265.552	1203.924	2726.390	0
20301.508	494.182	273.296	1208.931	2734.813	0
20301.633	496.353	280.663	1213.951	2742.891	0
20301.758	496.106	284.462	1216.798	2747.444	0
20301.883	495.858	288.261	1219.771	2752.014	0
20302.008	495.610	292.059	1222.870	2756.602	0
20302.133	495.362	295.858	1226.088	2761.210	0
20302.258	495.115	299.657	1229.424	2765.842	0
20302.383	494.867	303.456	1232.875	2770.499	0
20302.508	494.619	307.254	1236.439	2775.180	0
20302.633	494.503	311.110	1240.239	2779.947	0
20302.758	511.543	322.313	1261.246	2792.086	0
20302.883	532.268	333.679	1285.871	2804.747	0
20303.008	559.889	345.350	1317.201	2818.124	0
20303.133	587.511	357.021	1348.167	2831.963	0
20303.258	615.133	368.691	1378.724	2845.913	0
20303.383	623.640	373.763	1389.934	2853.131	0
20303.508	625.193	376.435	1394.160	2857.857	0
20303.633	626.746	379.106	1398.418	2862.548	0
20303.758	628.298	381.777	1402.747	2867.185	0
20303.883	629.851	384.449	1407.145	2871.769	0
20304.008	631.403	387.120	1411.612	2876.300	0
20304.133	632.956	389.791	1416.158	2880.786	0
20304.258	634.509	392.462	1420.784	2885.234	0
20304.383	636.061	395.134	1425.487	2889.642	0
20304.508	637.614	397.805	1430.264	2894.013	0
20304.633	639.166	400.476	1435.112	2898.341	0
20304.758	640.719	403.147	1440.033	2902.564	0
20304.883	642.272	405.819	1445.020	2906.684	0
20305.008	643.824	408.490	1450.067	2910.701	0
20305.133	645.377	411.161	1455.165	2914.619	0
20305.258	646.930	413.833	1460.311	2918.439	0
20305.383	648.482	416.504	1465.497	2922.162	0
20305.508	650.035	419.175	1470.715	2925.789	0
20305.633	651.587	421.846	1475.955	2929.332	0
20305.758	653.140	424.518	1481.124	2932.939	0
20305.883	654.693	427.189	1486.220	2936.620	0
20306.008	656.245	429.860	1491.243	2940.371	0
20306.133	657.798	432.531	1496.198	2944.188	0
20306.258	659.350	435.203	1501.086	2948.070	0
20306.383	660.903	437.874	1505.909	2952.012	0
20306.508	662.456	440.545	1510.669	2956.012	0
20306.633	664.008	443.217	1515.367	2960.066	0
20306.758	665.561	445.888	1520.017	2964.155	0
20306.883	667.113	448.559	1524.615	2968.277	0
20307.008	668.666	451.230	1529.162	2972.433	0
20307.133	670.219	453.902	1533.657	2976.623	0
20307.258	671.771	456.573	1538.098	2980.844	0
20307.383	673.324	459.244	1542.486	2985.098	0
20307.508	674.876	461.915	1546.816	2989.372	0
20307.633	676.429	464.587	1551.100	2993.651	0
20307.758	677.982	467.258	1555.393	2997.901	0
20307.883	679.534	469.929	1559.697	3002.115	0
20308.008	681.087	472.601	1564.017	3006.292	0
20308.133	682.639	475.272	1568.356	3010.425	0
20308.258	684.192	477.943	1572.716	3014.510	0
20308.383	685.745	480.614	1577.102	3018.542	0
20308.508	687.297	483.286	1581.517	3022.518	0
20308.633	688.850	485.957	1585.960	3026.432	0
20308.758	690.249	488.960	1590.196	3030.637	0
20308.883	691.564	492.148	1594.300	3034.988	0
20309.008	692.878	495.336	1598.359	3039.307	0
20309.133	694.193	498.523	1602.397	3043.565	0
20309.258	695.507	501.711	1606.435	3047.738	0
20309.383	696.822	504.899	1610.484	3051.821	0
20309.508	698.136	508.086	1614.553	3055.812	0
20309.633	699.451	511.274	1618.649	3059.711	0
20309.758	700.765	514.461	1622.820	3063.496	0
20309.883	702.079	517.649	1627.076	3067.160	0
20310.008	704.689	522.843	1632.720	3072.704	0
20310.133	708.694	530.199	1639.953	3080.196	0
20310.258	712.699	537.555	1647.513	3087.357	0
20310.383	716.705	544.911	1655.460	3094.071	0
20310.508	720.710	552.268	1663.806	3100.368	0
