Tag:	49806
Reference:	tu22_9432_05
Coast Distance (km): 	30.0
Estimation Time Delay (days): 	0.0

CNES Day	Xg	Yg	Xs	Ys	Delay
20295.967	0.000	0.000	0.000	0.000	0
20296.092	-0.289	0.178	999.000	999.000	0
20296.217	-0.578	0.356	999.000	999.000	0
20296.342	-0.866	0.533	999.000	999.000	0
20296.467	-1.155	0.711	999.000	999.000	0
20296.592	-1.444	0.889	999.000	999.000	0
20296.717	0.500	6.257	999.000	999.000	0
20296.842	2.469	11.683	999.000	999.000	0
20296.967	4.438	17.108	999.000	999.000	0
20297.092	6.407	22.534	999.000	999.000	0
20297.217	8.375	27.960	999.000	999.000	0
20297.342	10.344	33.386	999.000	999.000	0
20297.467	12.313	38.812	999.000	999.000	0
20297.592	14.282	44.238	39.058	68.168	0
20297.717	16.251	49.663	41.983	73.253	0
20297.842	17.286	56.324	43.905	79.417	0
20297.967	15.718	66.424	43.164	88.892	0
20298.092	14.151	76.524	42.443	98.326	0
20298.217	12.584	86.625	41.741	107.739	0
20298.342	11.016	96.725	41.058	117.151	0
20298.467	9.449	106.825	40.639	126.416	0
20298.592	7.882	116.925	40.671	135.414	0
20298.717	6.314	127.025	41.103	144.197	0
20298.842	4.747	137.125	41.915	152.787	0
20298.967	8.063	144.693	48.231	158.676	0
20299.092	11.615	152.138	55.370	164.383	0
20299.217	15.166	159.582	63.069	170.066	0
20299.342	14.275	167.156	66.858	175.886	0
20299.467	11.427	174.786	69.112	181.770	0
20299.592	8.579	182.416	71.721	187.698	0
20299.717	5.731	190.046	74.712	193.616	0
20299.842	2.883	197.676	78.097	199.497	0
20299.967	-0.958	204.024	80.904	204.044	0
20300.092	-5.982	208.846	82.784	207.005	0
20300.217	-11.006	213.668	84.748	209.905	0
20300.342	-16.030	218.490	86.700	212.758	0
20300.467	-21.054	223.312	88.670	215.531	0
20300.592	-25.882	229.907	90.878	219.966	0
20300.717	-30.508	238.324	93.421	226.079	0
20300.842	-35.135	246.741	96.188	231.993	0
20300.967	-39.761	255.158	98.871	237.805	0
20301.092	-44.387	263.575	101.486	243.482	0
20301.217	-49.013	271.992	104.026	249.006	0
20301.342	-53.640	280.409	106.468	254.403	0
20301.467	-58.266	288.825	108.607	259.657	0
20301.592	-62.892	297.242	110.313	264.770	0
20301.717	-67.519	305.659	111.592	269.723	0
20301.842	-72.145	314.076	112.442	274.499	0
20301.967	-76.771	322.493	112.868	279.102	0
20302.092	-81.397	330.910	112.840	283.561	0
20302.217	-86.024	339.327	112.371	287.927	0
20302.342	-90.650	347.744	111.484	292.288	0
20302.467	-92.493	357.878	112.964	298.360	0
20302.592	-92.276	369.285	115.891	305.769	0
20302.717	-92.058	380.691	118.128	313.295	0
20302.842	-91.841	392.098	119.681	320.932	0
20302.967	-91.623	403.505	120.541	328.717	0
20303.092	-91.406	414.911	120.689	336.679	0
20303.217	-91.189	426.318	120.137	344.818	0
20303.342	-86.099	437.388	123.797	352.795	0
20303.467	-80.578	448.430	127.283	361.163	0
20303.592	-75.057	459.471	130.158	369.992	0
20303.717	-69.537	470.512	132.354	379.415	0
20303.842	-63.992	480.973	134.087	388.806	0
20303.967	-58.174	484.704	135.676	391.989	0
20304.092	-52.355	488.434	137.109	395.636	0
20304.217	-46.536	492.165	138.400	399.732	0
20304.342	-40.717	495.896	139.569	404.246	0
20304.467	-34.898	499.626	140.678	409.058	0
20304.592	-29.079	503.357	141.864	413.987	0
20304.717	-23.261	507.088	143.137	419.044	0
20304.842	-17.442	510.818	144.505	424.228	0
20304.967	-11.623	514.549	145.985	429.523	0
20305.092	-5.804	518.279	147.592	434.918	0
20305.217	0.015	522.010	149.339	440.391	0
20305.342	5.834	525.741	151.240	445.780	0
20305.467	11.652	529.471	153.301	451.076	0
20305.592	24.534	529.999	162.586	453.070	0
20305.717	41.408	528.736	176.049	453.084	0
20305.842	46.280	533.198	177.803	458.623	0
20305.967	51.153	537.661	179.840	463.974	0
20306.092	54.970	542.116	181.167	469.129	0
20306.217	58.666	546.571	182.697	474.097	0
20306.342	62.363	551.025	184.551	478.873	0
20306.467	66.059	555.480	186.730	483.448	0
20306.592	69.755	559.935	189.237	487.812	0
20306.717	73.452	564.389	192.008	492.063	0
20306.842	77.148	568.844	195.005	496.264	0
20306.967	80.845	573.299	198.206	500.430	0
20307.092	84.541	577.753	201.572	504.625	0
20307.217	88.238	582.208	205.093	508.846	0
20307.342	91.934	586.663	208.759	513.090	0
20307.467	95.798	591.206	212.725	517.442	0
20307.592	100.594	596.240	217.748	522.301	0
20307.717	105.389	601.274	222.948	527.141	0
20307.842	110.185	606.309	228.314	531.957	0
20307.967	114.981	611.343	233.757	536.830	0
20308.092	124.528	613.084	243.943	538.527	0
20308.217	139.083	611.355	259.090	536.887	0
20308.342	142.117	616.294	262.644	542.069	0
20308.467	144.440	621.644	265.447	547.757	0
20308.592	146.763	626.994	268.207	553.528	0
20308.717	149.087	632.345	270.937	559.362	0
20308.842	151.410	637.695	273.637	565.253	0
20308.967	153.733	643.045	276.306	571.199	0
20309.092	156.057	648.395	278.964	577.196	0
20309.217	158.380	653.745	281.635	583.233	0
20309.342	160.703	659.095	284.322	589.311	0
20309.467	163.026	664.445	287.022	595.427	0
20309.592	165.350	669.795	289.736	601.583	0
20309.717	167.673	675.145	292.434	607.783	0
20309.842	169.996	680.495	295.107	614.023	0
20309.967	172.320	685.846	297.802	620.284	0
20310.092	174.643	691.196	300.543	626.558	0
20310.217	178.011	696.175	304.380	632.469	0
20310.342	181.610	700.974	308.496	638.199	0
20310.467	184.244	705.270	311.698	643.412	0
20310.592	186.878	709.566	314.959	648.608	0
20310.717	189.512	713.861	318.287	653.766	0
20310.842	192.005	719.109	321.549	659.835	0
20310.967	194.384	725.127	324.797	666.619	0
20311.092	196.764	731.145	328.156	673.354	0
20311.217	199.143	737.164	331.627	680.042	0
20311.342	201.522	743.182	335.207	686.687	0
20311.467	203.902	749.200	338.897	693.293	0
20311.592	206.281	755.219	342.693	699.861	0
20311.717	208.660	761.237	346.583	706.380	0
20311.842	209.215	767.102	348.746	712.700	0
20311.967	208.548	772.864	349.780	718.881	0
20312.092	212.464	774.364	355.485	720.771	0
20312.217	226.426	778.160	371.275	724.921	0
20312.342	225.794	783.515	372.571	730.547	0
20312.467	225.162	788.869	373.956	736.149	0
20312.592	224.531	794.223	375.417	741.718	0
20312.717	223.899	799.578	376.946	747.251	0
20312.842	223.267	804.932	378.544	752.756	0
20312.967	222.636	810.286	380.209	758.235	0
20313.092	222.004	815.641	381.942	763.692	0
20313.217	221.372	820.995	383.739	769.130	0
20313.342	220.740	826.349	385.601	774.554	0
20313.467	220.109	831.704	387.480	779.953	0
20313.592	219.477	837.058	389.365	785.324	0
20313.717	218.845	842.412	391.244	790.663	0
20313.842	218.214	847.767	393.113	795.965	0
20313.967	217.582	853.121	394.975	801.232	0
20314.092	217.454	858.882	397.340	806.873	0
20314.217	218.183	865.335	400.553	813.169	0
20314.342	218.911	871.789	403.681	819.407	0
20314.467	219.640	878.242	406.727	825.588	0
20314.592	220.368	884.695	409.694	831.713	0
20314.717	221.097	891.148	412.583	837.795	0
20314.842	221.826	897.601	415.396	843.843	0
20314.967	222.554	904.055	418.122	849.852	0
20315.092	223.283	910.508	420.751	855.814	0
20315.217	224.068	917.005	423.342	861.775	0
20315.342	224.867	923.513	425.850	867.698	0
20315.467	225.666	930.020	428.266	873.573	0
20315.592	226.465	936.528	430.589	879.400	0
20315.717	227.423	943.033	433.026	885.195	0
20315.842	230.328	949.512	437.360	890.929	0
20315.967	233.233	955.991	441.649	896.640	0
20316.092	236.138	962.470	445.884	902.329	0
20316.217	239.043	968.949	450.056	907.997	0
20316.342	241.948	975.427	454.170	913.668	0
20316.467	244.853	981.906	458.239	919.373	0
20316.592	247.758	988.385	462.251	925.111	0
20316.717	250.663	994.864	466.210	930.865	0
20316.842	253.568	1001.343	470.107	936.634	0
20316.967	256.473	1007.821	473.926	942.416	0
20317.092	259.378	1014.300	477.724	948.248	0
20317.217	262.283	1020.779	481.501	954.125	0
20317.342	264.776	1026.796	484.838	959.577	0
20317.467	267.237	1032.777	488.111	965.018	0
20317.592	269.699	1038.758	491.345	970.476	0
20317.717	272.160	1044.739	494.527	975.980	0
20317.842	274.958	1051.163	498.011	982.012	0
20317.967	278.249	1058.237	501.944	988.789	0
20318.092	281.540	1065.311	505.821	995.671	0
20318.217	284.831	1072.385	509.636	1002.661	0
20318.342	289.968	1079.029	515.227	1009.324	0
20318.467	295.608	1085.555	521.220	1015.993	0
20318.592	301.248	1092.081	527.124	1022.782	0
20318.717	306.888	1098.607	532.951	1029.694	0
20318.842	312.528	1105.133	538.708	1036.722	0
20318.967	318.168	1111.659	544.401	1043.857	0
20319.092	323.808	1118.186	550.039	1051.073	0
20319.217	329.448	1124.712	555.654	1058.333	0
20319.342	332.442	1132.828	558.626	1067.209	0
20319.467	332.657	1142.247	558.859	1077.406	0
20319.592	331.248	1146.281	557.520	1082.251	0
20319.717	332.565	1151.288	558.924	1088.070	0
20319.842	339.773	1158.399	566.261	1095.941	0
20319.967	346.982	1165.511	573.698	1103.709	0
20320.092	354.191	1172.623	581.260	1111.373	0
20320.217	355.965	1178.897	583.533	1118.095	0
20320.342	356.945	1185.048	585.112	1124.634	0
20320.467	357.925	1191.200	586.768	1131.094	0
20320.592	362.212	1196.650	591.804	1136.764	0
20320.717	368.903	1201.590	599.354	1141.819	0
20320.842	372.205	1208.297	603.634	1148.538	0
20320.967	374.654	1215.449	607.165	1155.607	0
20321.092	377.103	1222.600	610.803	1162.591	0
20321.217	379.552	1229.752	614.491	1169.502	0
20321.342	382.000	1236.904	618.222	1176.350	0
20321.467	384.449	1244.055	621.994	1183.144	0
20321.592	386.898	1251.207	625.807	1189.894	0
20321.717	389.347	1258.359	629.659	1196.615	0
20321.842	391.795	1265.510	633.492	1203.325	0
20321.967	394.005	1272.678	637.058	1210.044	0
20322.092	393.052	1280.060	637.430	1216.972	0
20322.217	393.704	1286.784	639.356	1223.209	0
20322.342	400.748	1290.883	647.635	1226.808	0
20322.467	407.404	1294.918	655.513	1230.399	0
20322.592	413.608	1298.879	662.925	1233.967	0
20322.717	416.235	1303.876	666.758	1238.627	0
20322.842	418.764	1308.902	670.467	1243.337	0
20322.967	421.293	1313.928	674.153	1248.063	0
20323.092	423.603	1320.357	677.603	1254.208	0
20323.217	425.596	1328.830	680.702	1262.398	0
20323.342	427.589	1337.303	683.680	1270.584	0
20323.467	429.582	1345.775	686.507	1278.765	0
20323.592	431.574	1354.248	689.179	1286.942	0
20323.717	433.567	1362.721	691.706	1295.103	0
20323.842	435.560	1371.193	694.029	1303.246	0
20323.967	437.553	1379.666	696.102	1311.368	0
20324.092	440.742	1388.207	699.115	1319.535	0
20324.217	445.591	1396.843	703.534	1327.809	0
20324.342	452.329	1403.437	709.626	1334.131	0
20324.467	459.719	1409.325	716.267	1339.882	0
20324.592	465.811	1414.759	721.524	1345.325	0
20324.717	471.743	1420.137	726.518	1350.838	0
20324.842	477.674	1425.515	731.404	1356.476	0
20324.967	484.171	1430.617	736.756	1361.944	0
20325.092	491.293	1435.416	742.755	1367.214	0
20325.217	498.414	1440.214	748.853	1372.588	0
20325.342	505.535	1445.012	755.050	1378.047	0
20325.467	512.657	1449.810	761.344	1383.570	0
20325.592	518.807	1453.992	766.761	1388.520	0
20325.717	523.133	1457.017	770.455	1392.264	0
20325.842	527.459	1460.042	774.209	1395.954	0
20325.967	531.764	1463.713	778.008	1400.235	0
20326.092	535.969	1470.275	781.779	1407.334	0
20326.217	540.174	1476.836	785.701	1414.301	0
20326.342	544.379	1483.397	789.766	1421.125	0
20326.467	548.719	1489.930	794.106	1427.770	0
20326.592	553.224	1496.427	798.748	1434.224	0
20326.717	557.729	1502.925	803.512	1440.475	0
20326.842	562.233	1509.422	808.403	1446.556	0
20326.967	566.738	1515.920	813.422	1452.493	0
20327.092	571.243	1522.417	818.562	1458.291	0
20327.217	575.747	1528.914	823.816	1463.964	0
20327.342	580.232	1534.499	829.155	1468.605	0
20327.467	584.711	1539.860	834.584	1472.925	0
20327.592	589.190	1545.220	840.119	1477.168	0
20327.717	593.670	1550.581	845.787	1481.470	0
20327.842	598.149	1555.941	851.573	1485.898	0
20327.967	602.628	1561.301	857.471	1490.461	0
20328.092	607.107	1566.662	863.477	1495.171	0
20328.217	611.587	1572.022	869.589	1500.039	0
20328.342	616.066	1577.383	875.749	1505.096	0
20328.467	620.545	1582.743	881.918	1510.369	0
20328.592	626.756	1590.960	889.820	1518.731	0
20328.717	636.820	1607.086	901.513	1535.202	0
20328.842	637.498	1611.904	903.544	1540.610	0
20328.967	638.175	1616.722	905.439	1546.056	0
20329.092	639.779	1620.508	908.128	1550.510	0
20329.217	643.415	1622.033	912.732	1552.745	0
20329.342	639.698	1623.292	909.894	1554.758	0
20329.467	625.613	1624.176	896.686	1556.348	0
20329.592	639.128	1632.558	911.197	1565.266	0
20329.717	660.738	1641.844	933.482	1575.401	0
20329.842	667.164	1644.029	940.231	1578.836	0
20329.967	673.505	1647.078	946.840	1583.155	0
20330.092	679.782	1650.775	953.332	1588.107	0
20330.217	686.059	1654.473	959.777	1593.029	0
20330.342	692.336	1658.171	966.188	1597.912	0
20330.467	698.290	1659.068	972.257	1599.940	0
20330.592	704.240	1659.933	978.333	1601.878	0
20330.717	710.190	1660.798	984.437	1603.755	0
20330.842	709.224	1664.184	983.658	1608.086	0
20330.967	706.199	1668.321	980.821	1613.168	0
20331.092	715.913	1675.234	990.715	1621.047	0
20331.217	725.422	1681.926	1000.449	1628.572	0
20331.342	731.520	1686.915	1006.853	1634.245	0
20331.467	737.619	1691.905	1013.318	1639.822	0
20331.592	743.717	1696.894	1019.846	1645.307	0
20331.717	749.816	1701.884	1026.445	1650.682	0
20331.842	753.268	1707.502	1030.473	1656.568	0
20331.967	755.785	1713.342	1033.633	1662.579	0
20332.092	759.445	1718.571	1037.965	1667.883	0
20332.217	763.800	1723.511	1043.032	1672.792	0
20332.342	766.291	1729.933	1046.278	1679.067	0
20332.467	768.782	1736.356	1049.556	1685.233	0
20332.592	771.273	1742.778	1052.867	1691.287	0
20332.717	773.764	1749.200	1056.146	1697.193	0
20332.842	776.256	1755.623	1059.321	1702.924	0
20332.967	778.747	1762.045	1062.398	1708.468	0
20333.092	782.187	1768.500	1066.332	1713.860	0
20333.217	786.316	1774.980	1070.876	1719.084	0
20333.342	790.446	1781.459	1075.349	1724.114	0
20333.467	795.370	1788.932	1080.543	1729.975	0
20333.592	802.513	1799.178	1087.874	1738.454	0
20333.717	810.368	1805.118	1095.834	1742.584	0
20333.842	818.498	1809.390	1104.029	1745.079	0
20333.967	826.628	1813.662	1112.151	1747.773	0
20334.092	834.758	1817.934	1120.216	1750.680	0
20334.217	842.888	1822.205	1128.236	1753.813	0
20334.342	851.018	1826.477	1136.204	1757.176	0
20334.467	859.148	1830.749	1144.115	1760.771	0
20334.592	869.898	1839.842	1154.590	1769.408	0
20334.717	880.653	1848.945	1164.988	1778.235	0
20334.842	891.409	1858.049	1175.363	1787.193	0
20334.967	898.154	1865.403	1181.842	1794.391	0
20335.092	895.202	1868.529	1178.730	1797.295	0
20335.217	892.249	1871.655	1175.661	1800.192	0
20335.342	889.796	1874.881	1173.132	1803.181	0
20335.467	892.551	1879.158	1175.853	1807.208	0
20335.592	894.546	1884.438	1177.875	1812.197	0
20335.717	895.956	1890.537	1179.401	1817.981	0
20335.842	899.148	1896.921	1182.815	1824.032	0
20335.967	902.217	1903.505	1186.228	1830.257	0
20336.092	904.895	1910.728	1189.379	1837.094	0
20336.217	907.196	1918.050	1192.298	1844.005	0
20336.342	909.040	1925.491	1194.865	1850.992	0
20336.467	912.535	1932.640	1199.153	1857.627	0
20336.592	916.550	1939.697	1204.048	1864.108	0
20336.717	920.564	1946.753	1209.027	1870.528	0
20336.842	924.579	1953.810	1214.092	1876.893	0
20336.967	928.593	1960.866	1219.123	1883.195	0
20337.092	932.608	1967.923	1224.073	1889.445	0
20337.217	936.623	1974.979	1228.933	1895.666	0
20337.342	940.637	1982.036	1233.690	1901.877	0
20337.467	944.652	1989.092	1238.338	1908.099	0
20337.592	948.666	1996.149	1242.815	1914.412	0
20337.717	952.681	2003.205	1247.092	1920.831	0
20337.842	956.286	2010.152	1250.744	1927.258	0
20337.967	955.579	2015.944	1249.857	1932.659	0
20338.092	959.568	2020.186	1253.508	1936.595	0
20338.217	968.051	2022.942	1261.546	1939.169	0
20338.342	976.533	2025.697	1269.426	1941.913	0
20338.467	989.278	2030.698	1281.413	1947.066	0
20338.592	1008.396	2039.056	1299.560	1955.808	0
20338.717	1021.259	2046.939	1311.306	1964.296	0
20338.842	1017.180	2053.536	1306.110	1971.561	0
20338.967	1013.100	2060.134	1300.979	1978.808	0
20339.092	1009.020	2066.731	1295.940	1986.032	0
20339.217	1004.941	2073.329	1290.983	1993.248	0
20339.342	1005.059	2078.517	1290.295	1999.063	0
20339.467	1009.469	2082.265	1293.964	2003.427	0
20339.592	1013.050	2086.476	1296.877	2008.205	0
20339.717	1015.716	2091.197	1298.930	2013.442	0
20339.842	1018.381	2095.918	1301.019	2018.621	0
20339.967	1021.046	2100.639	1303.150	2023.737	0
20340.092	1023.712	2105.360	1305.325	2028.786	0
20340.217	1026.377	2110.081	1307.552	2033.764	0
20340.342	1029.043	2114.802	1309.832	2038.667	0
20340.467	1031.708	2119.523	1312.171	2043.490	0
20340.592	1032.038	2122.702	1312.216	2046.686	0
20340.717	1030.957	2124.948	1310.838	2048.907	0
20340.842	1029.875	2127.195	1309.437	2051.117	0
20340.967	1028.794	2129.441	1308.016	2053.316	0
20341.092	1031.801	2135.421	1310.659	2059.238	0
20341.217	1037.433	2143.798	1315.941	2067.431	0
20341.342	1043.065	2152.175	1321.238	2075.461	0
20341.467	1048.697	2160.552	1326.527	2083.364	0
20341.592	1054.328	2168.929	1331.768	2091.196	0
20341.717	1059.960	2177.306	1336.931	2098.994	0
20341.842	1065.592	2185.683	1342.000	2106.785	0
20341.967	1071.224	2194.060	1346.976	2114.589	0
20342.092	1076.855	2202.438	1351.966	2122.418	0
20342.217	1082.487	2210.815	1356.961	2130.312	0
20342.342	1088.119	2219.192	1361.971	2138.259	0
20342.467	1093.751	2227.569	1367.009	2146.252	0
20342.592	1099.382	2235.946	1372.150	2154.271	0
20342.717	1105.014	2244.323	1377.384	2162.284	0
20342.842	1110.646	2252.700	1382.695	2170.274	0
20342.967	1112.309	2259.204	1384.115	2176.358	0
20343.092	1111.798	2264.681	1383.336	2181.401	0
20343.217	1111.287	2270.159	1382.517	2186.422	0
20343.342	1110.775	2275.637	1381.656	2191.424	0
20343.467	1110.264	2281.115	1380.750	2196.409	0
20343.592	1109.753	2286.593	1379.798	2201.379	0
20343.717	1114.889	2291.541	1384.482	2205.820	0
20343.842	1124.656	2296.054	1393.750	2209.880	0
20343.967	1134.423	2300.568	1402.947	2214.008	0
20344.092	1144.191	2305.082	1412.054	2218.201	0
20344.217	1153.958	2309.596	1421.055	2222.458	0
20344.342	1163.725	2314.109	1429.943	2226.883	0
20344.467	1173.492	2318.623	1438.701	2231.490	0
20344.592	1183.259	2323.137	1447.318	2236.289	0
20344.717	1193.027	2327.651	1455.771	2241.261	0
20344.842	1202.794	2332.164	1464.070	2246.393	0
20344.967	1212.561	2336.678	1472.239	2251.661	0
20345.092	1222.328	2341.192	1480.298	2257.041	0
20345.217	1232.095	2345.706	1488.300	2262.478	0
20345.342	1239.752	2350.867	1494.216	2268.543	0
20345.467	1242.616	2357.497	1495.378	2276.028	0
20345.592	1245.480	2364.128	1496.599	2283.329	0
20345.717	1248.344	2370.759	1497.940	2290.465	0
20345.842	1251.208	2377.389	1499.433	2297.452	0
20345.967	1254.072	2384.020	1501.093	2304.295	0
20346.092	1256.936	2390.651	1502.934	2310.999	0
20346.217	1259.800	2397.281	1505.005	2317.597	0
20346.342	1262.664	2403.912	1507.301	2324.116	0
20346.467	1265.528	2410.543	1509.815	2330.562	0
20346.592	1268.392	2417.173	1512.533	2336.939	0
20346.717	1271.257	2423.804	1515.427	2343.223	0
20346.842	1274.121	2430.435	1518.452	2349.463	0
20346.967	1276.985	2437.065	1521.602	2355.665	0
20347.092	1279.849	2443.696	1524.867	2361.832	0
20347.217	1282.713	2450.327	1528.242	2367.969	0
20347.342	1285.577	2456.957	1531.719	2374.078	0
20347.467	1288.441	2463.588	1535.256	2380.195	0
20347.592	1291.305	2470.219	1538.851	2386.321	0
20347.717	1294.169	2476.849	1542.498	2392.455	0
20347.842	1297.033	2483.480	1546.192	2398.585	0
20347.967	1299.897	2490.111	1549.927	2404.696	0
20348.092	1302.761	2496.741	1553.672	2410.796	0
20348.217	1305.625	2503.372	1557.424	2416.887	0
20348.342	1308.489	2510.003	1561.177	2422.973	0
20348.467	1311.353	2516.633	1564.926	2429.060	0
20348.592	1314.217	2523.264	1568.666	2435.153	0
20348.717	1317.081	2529.894	1572.362	2441.268	0
20348.842	1319.945	2536.525	1576.007	2447.406	0
20348.967	1322.809	2543.156	1579.593	2453.572	0
20349.092	1325.674	2549.786	1583.116	2459.769	0
20349.217	1328.538	2556.417	1586.572	2466.005	0
20349.342	1331.402	2563.048	1589.958	2472.298	0
20349.467	1334.266	2569.678	1593.267	2478.643	0
20349.592	1337.130	2576.309	1596.494	2485.038	0
20349.717	1339.994	2582.940	1599.642	2491.482	0
20349.842	1342.858	2589.570	1602.719	2497.981	0
20349.967	1345.722	2596.201	1605.755	2504.539	0
20350.092	1348.586	2602.832	1608.752	2511.153	0
20350.217	1351.450	2609.462	1611.713	2517.821	0
20350.342	1354.314	2616.093	1614.641	2524.540	0
20350.467	1357.178	2622.724	1617.563	2531.291	0
