Tag:	66266
Reference:	tu26_E_05
Coast Distance (km): 	30.0
Estimation Time Delay (days): 	0.0

CNES Day	Xg	Yg	Xs	Ys	Delay
20620.318	0.000	0.000	0.000	0.000	0
20620.443	-0.245	3.977	999.000	999.000	0
20620.568	-0.489	7.954	999.000	999.000	0
20620.693	-0.734	11.931	999.000	999.000	0
20620.818	-0.978	15.908	999.000	999.000	0
20620.943	-1.223	19.886	999.000	999.000	0
20621.068	-1.467	23.863	999.000	999.000	0
20621.193	-2.412	27.186	999.000	999.000	0
20621.318	-6.764	27.328	999.000	999.000	0
20621.443	-11.116	27.470	999.000	999.000	0
20621.568	-15.468	27.612	999.000	999.000	0
20621.693	-19.820	27.754	999.000	999.000	0
20621.818	-24.172	27.896	999.000	999.000	0
20621.943	-28.524	28.038	999.000	999.000	0
20622.068	-32.876	28.180	999.000	999.000	0
20622.193	-37.227	28.322	999.000	999.000	0
20622.318	-41.579	28.464	999.000	999.000	0
20622.443	-45.931	28.606	999.000	999.000	0
20622.568	-50.283	28.748	999.000	999.000	0
20622.693	-54.635	28.890	999.000	999.000	0
20622.818	-58.987	29.032	999.000	999.000	0
20622.943	-59.494	30.608	999.000	999.000	0
20623.068	-59.290	32.450	999.000	999.000	0
20623.193	-59.085	34.292	999.000	999.000	0
20623.318	-58.881	36.134	999.000	999.000	0
20623.443	-58.676	37.976	999.000	999.000	0
20623.568	-58.471	39.818	999.000	999.000	0
20623.693	-58.267	41.659	999.000	999.000	0
20623.818	-58.062	43.501	999.000	999.000	0
20623.943	-57.857	45.343	999.000	999.000	0
20624.068	-57.715	47.269	999.000	999.000	0
20624.193	-58.701	50.720	999.000	999.000	0
20624.318	-59.687	54.172	999.000	999.000	0
20624.443	-60.673	57.623	999.000	999.000	0
20624.568	-61.659	61.074	999.000	999.000	0
20624.693	-62.645	64.525	999.000	999.000	0
20624.818	-63.631	67.977	999.000	999.000	0
20624.943	-64.617	71.428	999.000	999.000	0
20625.068	-65.603	74.879	999.000	999.000	0
20625.193	-68.114	79.675	999.000	999.000	0
20625.318	-71.284	85.052	999.000	999.000	0
20625.443	-71.009	88.451	999.000	999.000	0
20625.568	-69.472	91.124	999.000	999.000	0
20625.693	-67.934	93.797	-82.250	-18.209	0
20625.818	-66.397	96.470	-84.028	-18.681	0
20625.943	-64.906	99.159	-85.735	-19.161	0
20626.068	-65.180	102.455	-89.112	-19.032	0
20626.193	-65.455	105.751	-92.427	-18.791	0
20626.318	-65.730	109.047	-95.663	-18.452	0
20626.443	-64.330	111.194	-97.138	-19.169	0
20626.568	-62.467	113.023	-98.120	-20.158	0
20626.693	-60.605	114.852	-99.047	-21.141	0
20626.818	-58.742	116.681	-99.884	-22.136	0
20626.943	-56.880	118.510	-100.649	-23.125	0
20627.068	-55.018	120.339	-101.354	-24.091	0
20627.193	-51.989	122.268	-100.851	-24.918	0
20627.318	-42.308	124.771	-93.692	-25.095	0
20627.443	-32.627	127.273	-86.751	-24.986	0
20627.568	-22.945	129.776	-80.360	-24.509	0
20627.693	-25.018	132.808	-86.496	-23.258	0
20627.818	-30.629	136.000	-95.892	-21.828	0
20627.943	-36.241	139.192	-104.782	-20.410	0
20628.068	-41.852	142.383	-113.233	-18.980	0
20628.193	-47.463	145.575	-121.454	-17.571	0
20628.318	-50.828	147.921	-127.214	-17.026	0
20628.443	-50.723	149.505	-129.366	-17.242	0
20628.568	-44.675	155.112	-125.555	-13.393	0
20628.693	-39.420	160.223	-122.661	-9.714	0
20628.818	-35.906	164.246	-121.608	-6.843	0
20628.943	-32.391	168.269	-120.587	-3.826	0
20629.068	-28.877	172.293	-119.509	-0.825	0
20629.193	-25.363	176.316	-118.371	2.176	0
20629.318	-26.856	181.560	-122.177	6.414	0
20629.443	-33.390	188.033	-130.868	11.933	0
20629.568	-37.999	196.132	-137.396	19.128	0
20629.693	-41.682	205.013	-142.725	27.113	0
20629.818	-45.365	213.894	-147.797	35.036	0
20629.943	-49.049	222.774	-152.602	42.882	0
20630.068	-52.732	231.655	-157.102	50.665	0
20630.193	-55.305	234.250	-160.151	52.112	0
20630.318	-57.506	234.741	-162.651	51.412	0
20630.443	-59.707	235.232	-165.029	50.674	0
20630.568	-61.908	235.723	-167.287	49.901	0
20630.693	-64.109	236.214	-169.437	49.089	0
20630.818	-66.310	236.705	-171.495	48.238	0
20630.943	-70.656	238.341	-175.599	48.528	0
20631.068	-85.166	245.406	-189.669	54.341	0
20631.193	-88.554	248.147	-191.251	57.369	0
20631.318	-76.900	245.042	-177.353	54.990	0
20631.443	-65.246	241.937	-164.496	51.445	0
20631.568	-53.592	238.832	-152.195	47.319	0
20631.693	-41.938	235.727	-140.246	42.987	0
20631.818	-38.765	239.345	-137.100	45.340	0
20631.943	-52.511	256.373	-150.801	61.229	0
20632.068	-66.257	273.401	-163.490	78.030	0
20632.193	-80.004	290.429	-174.994	96.623	0
20632.318	-93.750	307.458	-185.758	116.055	0
20632.443	-107.496	324.486	-196.466	135.653	0
20632.568	-121.242	341.514	-207.488	155.209	0
20632.693	-125.619	344.942	-209.501	160.446	0
20632.818	-128.412	346.070	999.000	999.000	0
20632.943	-131.205	347.198	999.000	999.000	0
20633.068	-133.998	348.326	999.000	999.000	0
20633.193	-136.791	349.454	999.000	999.000	0
20633.318	-139.584	350.582	999.000	999.000	0
20633.443	-142.377	351.710	999.000	999.000	0
20633.568	-145.170	352.838	999.000	999.000	0
20633.693	-147.963	353.966	999.000	999.000	0
20633.818	-150.756	355.094	999.000	999.000	0
20633.943	-153.549	356.223	999.000	999.000	0
20634.068	-156.342	357.351	999.000	999.000	0
20634.193	-159.135	358.479	999.000	999.000	0
20634.318	-161.928	359.607	999.000	999.000	0
20634.443	-164.721	360.735	999.000	999.000	0
20634.568	-167.514	361.863	999.000	999.000	0
20634.693	-170.307	362.991	999.000	999.000	0
20634.818	-173.100	364.119	999.000	999.000	0
20634.943	-173.458	359.910	999.000	999.000	0
20635.068	-170.187	347.750	999.000	999.000	0
20635.193	-162.997	356.601	999.000	999.000	0
20635.318	-155.040	369.567	999.000	999.000	0
20635.443	-147.082	382.533	999.000	999.000	0
20635.568	-139.125	395.499	999.000	999.000	0
20635.693	-131.168	408.465	-23.232	503.896	0
20635.818	-123.211	421.431	-15.396	518.183	0
20635.943	-119.652	432.902	-11.598	530.605	0
20636.068	-134.708	438.042	-25.919	536.244	0
20636.193	-149.764	443.183	-40.546	541.806	0
20636.318	-164.820	448.323	-55.469	547.283	0
20636.443	-167.830	451.867	-58.300	551.079	0
20636.568	-168.448	455.095	-58.675	554.485	0
20636.693	-169.067	458.322	999.000	999.000	0
20636.818	-169.686	461.550	999.000	999.000	0
20636.943	-170.305	464.777	999.000	999.000	0
20637.068	-170.283	470.409	999.000	999.000	0
20637.193	-170.100	476.647	999.000	999.000	0
20637.318	-169.897	483.692	999.000	999.000	0
20637.443	-168.861	491.237	999.000	999.000	0
20637.568	-166.205	499.723	999.000	999.000	0
20637.693	-163.549	508.209	999.000	999.000	0
20637.818	-161.454	516.499	999.000	999.000	0
20637.943	-163.805	523.233	999.000	999.000	0
20638.068	-163.196	529.706	999.000	999.000	0
20638.193	-157.325	535.713	999.000	999.000	0
20638.318	-151.453	541.721	999.000	999.000	0
20638.443	-145.582	547.729	999.000	999.000	0
20638.568	-139.711	553.736	51.162	642.884	0
20638.693	-133.515	559.713	58.358	648.336	0
20638.818	-126.948	565.655	65.899	653.705	0
20638.943	-120.382	571.596	999.000	999.000	0
20639.068	-113.816	577.538	999.000	999.000	0
20639.193	-107.250	583.479	999.000	999.000	0
20639.318	-100.683	589.421	999.000	999.000	0
20639.443	-94.117	595.362	999.000	999.000	0
20639.568	-87.551	601.304	999.000	999.000	0
20639.693	-81.441	607.646	107.689	695.631	0
20639.818	-79.774	617.892	109.110	705.498	0
20639.943	-78.107	628.137	110.490	715.424	0
20640.068	-76.439	638.382	111.831	725.387	0
20640.193	-74.772	648.628	113.154	735.345	0
20640.318	-72.993	658.805	114.604	745.191	0
20640.443	-65.475	665.463	121.831	751.460	0
20640.568	-60.321	673.204	126.725	758.536	0
20640.693	-57.894	682.191	128.925	766.624	0
20640.818	-55.468	691.179	131.133	774.527	0
20640.943	-53.041	700.167	133.347	782.264	0
20641.068	-50.615	709.154	135.571	789.850	0
20641.193	-48.601	718.143	137.412	797.296	0
20641.318	-46.984	727.132	138.919	804.613	0
20641.443	-45.368	736.122	140.484	811.825	0
20641.568	-43.751	745.112	142.102	818.947	0
20641.693	-42.135	754.101	143.845	825.966	0
20641.818	-40.518	763.091	145.807	832.865	0
20641.943	-38.902	772.080	147.984	839.646	0
20642.068	-37.285	781.070	150.371	846.318	0
20642.193	-35.807	790.067	152.897	852.884	0
20642.318	-37.666	799.246	152.459	859.515	0
20642.443	-39.086	808.023	152.798	865.729	0
20642.568	-37.396	813.946	156.562	869.088	0
20642.693	-35.705	819.870	160.550	872.353	0
20642.818	-34.014	825.794	164.744	875.509	0
20642.943	-32.324	831.717	169.137	878.570	0
20643.068	-30.633	837.641	173.726	881.543	0
20643.193	-28.943	843.565	178.511	884.437	0
20643.318	-27.252	849.488	183.484	887.261	0
20643.443	-27.416	855.939	186.764	890.571	0
20643.568	-37.626	865.242	180.071	896.806	0
20643.693	-47.835	874.545	173.570	903.247	0
20643.818	-58.045	883.849	167.282	910.012	0
20643.943	-68.254	893.152	161.292	917.056	0
20644.068	-78.464	902.455	155.586	924.445	0
20644.193	-88.673	911.759	150.154	932.167	0
20644.318	-97.901	920.359	145.958	939.495	0
20644.443	-104.552	927.114	144.579	945.212	0
20644.568	-111.202	933.868	143.194	951.102	0
20644.693	-117.838	940.606	141.826	957.099	0
20644.818	-124.264	947.094	140.608	962.852	0
20644.943	-130.730	954.834	139.292	969.820	0
20645.068	-137.301	965.839	137.803	979.963	0
20645.193	-145.442	969.882	134.230	983.015	0
20645.318	-153.815	972.896	130.193	984.911	0
20645.443	-161.801	981.621	126.360	992.478	0
20645.568	-169.734	991.147	122.202	1000.818	0
20645.693	-177.666	1000.673	117.666	1009.133	0
20645.818	-189.707	1002.153	108.640	1009.427	0
20645.943	-203.242	1000.709	98.091	1006.980	0
20646.068	-206.417	1006.632	97.982	1012.358	0
20646.193	-207.223	1012.741	100.046	1018.007	0
20646.318	-206.531	1017.655	103.405	1022.468	0
20646.443	-212.806	1027.156	99.636	1031.464	0
20646.568	-219.491	1037.340	95.172	1041.357	0
20646.693	-218.599	1044.719	98.002	1048.628	0
20646.818	-217.707	1052.098	100.596	1055.830	0
20646.943	-216.815	1059.476	102.957	1062.969	0
20647.068	-215.924	1066.855	105.089	1070.050	0
20647.193	-217.292	1072.772	104.907	1075.592	0
20647.318	-230.012	1071.344	93.347	1073.760	0
20647.443	-239.124	1072.444	85.301	1074.619	0
20647.568	-243.839	1076.625	81.553	1078.633	0
20647.693	-248.554	1080.805	77.746	1082.661	0
20647.818	-253.450	1085.056	73.701	1086.782	0
20647.943	-259.647	1089.823	68.301	1091.444	0
20648.068	-265.843	1094.589	62.838	1096.147	0
20648.193	-272.039	1099.355	57.359	1100.860	0
20648.318	-278.235	1104.122	51.928	1105.628	0
20648.443	-284.432	1108.888	46.551	1110.474	0
20648.568	-290.628	1113.655	41.223	1115.420	0
20648.693	-296.837	1118.107	35.922	1120.157	0
20648.818	-303.071	1121.975	30.627	1124.413	0
20648.943	-309.305	1125.842	25.409	1128.720	0
20649.068	-315.538	1129.710	20.256	1133.084	0
20649.193	-321.772	1133.577	15.151	1137.510	0
20649.318	-328.006	1137.445	999.000	999.000	0
20649.443	-334.239	1141.312	999.000	999.000	0
20649.568	-336.958	1147.307	999.000	999.000	0
20649.693	-336.525	1155.210	999.000	999.000	0
20649.818	-336.092	1163.112	999.000	999.000	0
20649.943	-339.615	1169.264	999.000	999.000	0
20650.068	-348.125	1173.207	999.000	999.000	0
20650.193	-356.636	1177.150	999.000	999.000	0
20650.318	-365.253	1181.231	999.000	999.000	0
20650.443	-375.715	1187.701	999.000	999.000	0
20650.568	-386.177	1194.170	999.000	999.000	0
20650.693	-396.639	1200.640	999.000	999.000	0
20650.818	-407.101	1207.110	999.000	999.000	0
20650.943	-417.563	1213.579	999.000	999.000	0
20651.068	-428.024	1220.049	999.000	999.000	0
20651.193	-438.486	1226.519	999.000	999.000	0
20651.318	-448.948	1232.988	999.000	999.000	0
20651.443	-459.410	1239.458	999.000	999.000	0
20651.568	-469.872	1245.927	999.000	999.000	0
20651.693	-480.334	1252.397	999.000	999.000	0
20651.818	-485.888	1261.767	999.000	999.000	0
20651.943	-483.137	1276.048	999.000	999.000	0
20652.068	-480.386	1290.328	999.000	999.000	0
20652.193	-477.634	1304.608	999.000	999.000	0
20652.318	-474.883	1318.888	999.000	999.000	0
20652.443	-472.131	1333.168	999.000	999.000	0
20652.568	-469.380	1347.449	999.000	999.000	0
20652.693	-466.628	1361.729	33.020	1306.585	0
20652.818	-463.877	1376.009	34.307	1312.626	0
20652.943	-461.126	1390.289	36.200	1318.730	0
20653.068	-458.374	1404.569	38.762	1325.173	0
20653.193	-455.623	1418.850	41.934	1331.983	0
20653.318	-452.871	1433.130	45.564	1339.470	0
20653.443	-452.465	1446.871	47.222	1347.223	0
20653.568	-462.629	1458.183	38.661	1353.120	0
20653.693	-472.794	1469.496	30.670	1358.525	0
20653.818	-482.958	1480.808	23.256	1363.440	0
20653.943	-493.122	1492.121	16.383	1367.884	0
20654.068	-503.286	1503.433	9.881	1371.852	0
20654.193	-516.208	1523.589	1.004	1384.115	0
20654.318	-529.137	1542.528	-7.491	1394.479	0
20654.443	-541.697	1557.196	-15.501	1400.310	0
20654.568	-554.257	1571.863	-23.353	1405.749	0
20654.693	-566.817	1586.531	-30.952	1410.680	0
20654.818	-579.377	1601.198	-38.653	1415.882	0
20654.943	-591.868	1615.860	-46.531	1421.273	0
20655.068	-588.102	1629.040	-38.371	1425.050	0
20655.193	-589.377	1643.016	-35.731	1429.627	0
20655.318	-594.224	1657.554	-37.147	1434.687	0
20655.443	-598.329	1672.796	-38.420	1440.385	0
20655.568	-602.400	1688.072	-40.366	1446.322	0
20655.693	-606.470	1703.347	-42.995	1452.418	0
20655.818	-610.541	1718.623	-46.299	1458.728	0
20655.943	-614.150	1734.689	-49.765	1466.118	0
20656.068	-612.890	1759.110	-48.854	1482.389	0
20656.193	-611.630	1783.530	-48.658	1499.593	0
20656.318	-610.370	1807.950	-49.019	1518.419	0
20656.443	-612.243	1824.072	-52.282	1531.636	0
20656.568	-616.667	1833.198	-57.440	1539.735	0
20656.693	-621.091	1842.325	-61.721	1548.960	0
20656.818	-628.561	1851.441	-68.238	1559.281	0
20656.943	-644.954	1860.525	-82.618	1570.704	0
20657.068	-660.071	1863.490	-94.123	1576.762	0
20657.193	-674.420	1862.780	-103.575	1579.269	0
20657.318	-688.770	1862.069	-112.058	1581.580	0
20657.443	-703.755	1862.501	-120.433	1584.852	0
20657.568	-720.001	1865.197	-129.279	1590.307	0
20657.693	-736.247	1867.893	-137.606	1595.565	0
20657.818	-752.162	1870.674	-145.128	1600.643	0
20657.943	-765.537	1874.112	-149.879	1605.658	0
20658.068	-778.911	1877.549	-154.589	1609.868	0
20658.193	-792.285	1880.986	-159.301	1613.231	0
20658.318	-810.109	1878.685	-168.640	1609.980	0
20658.443	-828.665	1875.539	-178.656	1604.747	0
20658.568	-843.351	1881.579	-184.724	1607.982	0
20658.693	-857.646	1888.289	-190.745	1611.415	0
20658.818	-870.895	1896.789	-196.168	1616.246	0
20658.943	-882.138	1906.257	-200.060	1621.746	0
20659.068	-892.935	1915.938	-203.961	1627.334	0
20659.193	-903.733	1925.620	-208.217	1632.782	0
20659.318	-914.530	1935.302	-213.146	1637.724	0
20659.443	-925.328	1944.984	-218.886	1642.047	0
20659.568	-936.126	1954.666	-225.529	1645.649	0
20659.693	-946.419	1964.434	-232.873	1648.478	0
20659.818	-942.721	1976.601	-227.587	1652.836	0
20659.943	-939.024	1988.768	-224.022	1657.604	0
20660.068	-935.327	2000.936	-222.081	1662.765	0
20660.193	-931.630	2013.103	-221.662	1668.207	0
20660.318	-928.710	2025.484	-223.579	1674.026	0
20660.443	-936.653	2040.853	-237.514	1683.208	0
20660.568	-939.897	2054.913	-247.602	1691.239	0
20660.693	-934.137	2066.467	-249.058	1697.349	0
20660.818	-928.378	2078.020	-250.669	1704.381	0
20660.943	-923.210	2088.754	-253.063	1711.522	0
20661.068	-921.300	2094.978	-258.452	1714.959	0
20661.193	-918.918	2099.683	-263.000	1717.270	0
20661.318	-915.651	2101.533	-266.415	1717.046	0
20661.443	-916.098	2104.879	-273.556	1718.516	0
20661.568	-919.687	2109.490	-283.589	1721.415	0
20661.693	-923.276	2114.101	-293.156	1724.457	0
20661.818	-926.865	2118.712	-302.278	1727.648	0
20661.943	-930.454	2123.323	-310.944	1730.866	0
20662.068	-917.103	2124.355	-302.214	1730.481	0
20662.193	-900.956	2124.796	-290.908	1729.845	0
20662.318	-900.028	2129.700	-295.120	1734.044	0
20662.443	-902.035	2135.464	-301.816	1739.178	0
20662.568	-904.043	2141.229	-307.922	1744.336	0
20662.693	-906.050	2146.994	-313.438	1749.513	0
20662.818	-909.707	2152.067	-320.009	1754.016	0
20662.943	-935.766	2147.755	-348.548	1749.103	0
20663.068	-953.479	2142.475	-368.684	1742.648	0
20663.193	-950.483	2134.790	-368.112	1733.227	0
20663.318	-947.487	2127.105	-368.148	1723.739	0
20663.443	-944.492	2119.420	-368.825	1714.195	0
20663.568	-949.185	2116.450	-377.863	1709.317	0
20663.693	-955.041	2114.193	-388.179	1704.979	0
20663.818	-960.897	2111.935	-398.542	1700.442	0
20663.943	-966.752	2109.678	-408.915	1695.668	0
20664.068	-972.608	2107.421	-419.303	1690.732	0
20664.193	-969.404	2106.163	-420.661	1686.731	0
20664.318	-961.124	2105.465	-417.175	1683.263	0
20664.443	-952.845	2104.766	-414.078	1679.885	0
20664.568	-948.346	2105.089	-415.200	1677.757	0
20664.693	-952.964	2107.875	-425.648	1678.249	0
20664.818	-957.582	2110.660	-435.788	1678.738	0
20664.943	-962.915	2111.433	-446.356	1677.214	0
20665.068	-970.331	2106.352	-458.811	1669.711	0
20665.193	-971.462	2106.074	-465.019	1666.703	0
20665.318	-968.974	2108.562	-467.621	1666.434	0
20665.443	-955.978	2095.014	-459.707	1650.246	0
20665.568	-953.080	2092.503	-463.127	1644.665	0
20665.693	-967.925	2110.970	-484.586	1660.016	0
20665.818	-969.788	2117.641	-491.498	1664.162	0
20665.943	-963.857	2114.220	-490.178	1658.475	0
20666.068	-976.657	2109.844	-507.988	1651.779	0
20666.193	-985.591	2105.768	-521.767	1645.117	0
20666.318	-962.731	2104.161	-503.642	1640.703	0
20666.443	-958.067	2102.415	-504.563	1636.205	0
20666.568	-956.320	2100.647	-508.690	1631.737	0
20666.693	-954.574	2098.878	-512.994	1627.230	0
20666.818	-952.828	2097.110	-517.481	1622.686	0
20666.943	-951.082	2095.342	-522.163	1618.101	0
20667.068	-944.282	2095.636	-521.986	1615.535	0
20667.193	-936.415	2096.365	-521.042	1613.606	0
20667.318	-928.548	2097.095	-520.408	1611.941	0
20667.443	-920.681	2097.825	-520.078	1610.541	0
20667.568	-912.814	2098.554	-519.990	1609.389	0
20667.693	-904.946	2099.284	-520.129	1608.501	0
20667.818	-897.079	2100.013	-520.507	1607.877	0
20667.943	-889.212	2100.743	-521.103	1607.510	0
20668.068	-881.139	2101.200	-521.697	1607.118	0
20668.193	-872.797	2101.301	-522.088	1606.620	0
20668.318	-864.456	2101.402	-522.579	1606.365	0
20668.443	-856.369	2101.297	-523.425	1606.145	0
20668.568	-849.869	2099.904	-525.982	1604.878	0
20668.693	-843.935	2099.850	-529.221	1605.143	0
20668.818	-838.666	2101.367	-533.026	1607.157	0
20668.943	-833.397	2102.884	-536.587	1609.305	0
20669.068	-828.127	2104.401	-539.901	1611.568	0
20669.193	-822.858	2105.918	-542.975	1613.936	0
20669.318	-817.588	2107.436	-545.797	1616.385	0
20669.443	-812.319	2108.953	-548.377	1618.903	0
20669.568	-802.828	2092.108	-546.415	1603.028	0
20669.693	-791.223	2065.353	-543.496	1577.966	0
20669.818	-790.053	2058.884	-551.107	1574.703	0
20669.943	-787.439	2051.690	-557.120	1571.113	0
20670.068	-782.748	2043.452	-560.872	1566.981	0
20670.193	-778.057	2035.214	-563.901	1563.297	0
20670.318	-773.366	2026.976	-566.083	1560.017	0
20670.443	-768.675	2018.738	-567.412	1557.132	0
20670.568	-772.834	2014.100	-576.849	1558.282	0
20670.693	-784.367	2012.461	-593.225	1562.203	0
20670.818	-793.231	2002.209	-606.556	1556.775	0
20670.943	-801.013	1988.466	-617.188	1546.881	0
20671.068	-794.319	1993.648	-611.146	1554.858	0
20671.193	-793.388	1996.814	-611.773	1561.412	0
20671.318	-803.345	1994.680	-623.656	1562.797	0
20671.443	-813.301	1992.546	-634.734	1563.380	0
20671.568	-823.258	1990.413	-644.939	1563.151	0
20671.693	-833.215	1988.279	-654.409	1562.374	0
20671.818	-843.171	1986.146	-663.212	1561.194	0
20671.943	-853.128	1984.012	-671.324	1559.649	0
20672.068	-863.085	1981.879	-678.713	1557.771	0
20672.193	-873.041	1979.745	-685.919	1555.752	0
20672.318	-882.998	1977.612	-692.920	1553.630	0
20672.443	-892.954	1975.478	-699.701	1551.457	0
20672.568	-902.911	1973.345	-706.306	1549.154	0
20672.693	-912.868	1971.211	-712.874	1546.417	0
20672.818	-922.824	1969.077	-719.369	1543.261	0
20672.943	-932.781	1966.944	-725.780	1539.713	0
20673.068	-942.738	1964.810	-732.076	1535.606	0
20673.193	-952.694	1962.677	-738.280	1530.773	0
20673.318	-962.651	1960.543	-744.391	1525.238	0
20673.443	-972.608	1958.410	-750.414	1519.006	0
20673.568	-982.564	1956.276	-756.364	1512.107	0
20673.693	-990.318	1958.605	-760.053	1508.992	0
20673.818	-995.894	1965.344	-762.099	1509.657	0
20673.943	-1001.470	1972.083	-765.285	1509.721	0
20674.068	-1007.046	1978.821	-769.594	1509.191	0
20674.193	-1012.622	1985.560	-774.888	1508.388	0
20674.318	-1022.968	1991.357	-785.810	1506.495	0
