Tag:	57121
Reference:	tu21_121_05
Coast Distance (km): 	30.0
Estimation Time Delay (days): 	0.0

CNES Day	Xg	Yg	Xs	Ys	Delay
20516.136	0.000	0.000	0.000	0.000	0
20516.261	-2.334	-1.899	999.000	999.000	0
20516.386	-4.669	-3.797	999.000	999.000	0
20516.511	-7.003	-5.696	999.000	999.000	0
20516.636	-10.436	-10.669	999.000	999.000	0
20516.761	-15.363	-19.826	999.000	999.000	0
20516.886	-20.290	-28.983	999.000	999.000	0
20517.011	-25.218	-38.140	999.000	999.000	0
20517.136	-30.145	-47.298	999.000	999.000	0
20517.261	-40.480	-54.115	999.000	999.000	0
20517.386	-53.938	-59.581	-131.451	-56.212	0
20517.511	-67.396	-65.047	-144.665	-61.823	0
20517.636	-80.854	-70.513	-157.937	-67.420	0
20517.761	-94.312	-75.979	-171.255	-72.998	0
20517.886	-106.614	-78.557	-183.490	-75.668	0
20518.011	-117.859	-78.493	-194.732	-75.679	0
20518.136	-129.104	-78.428	-206.031	-75.679	0
20518.261	-140.349	-78.363	-217.389	-75.668	0
20518.386	-151.594	-78.298	-228.806	-75.648	0
20518.511	-153.999	-83.936	-231.441	-81.325	0
20518.636	-141.623	-99.110	-219.323	-96.522	0
20518.761	-129.248	-114.283	-207.182	-111.694	0
20518.886	-125.757	-124.005	-203.890	-121.385	0
20519.011	-146.175	-119.055	-224.508	-116.386	0
20519.136	-158.814	-118.546	-237.456	-115.851	0
20519.261	-167.295	-120.411	-246.316	-117.700	0
20519.386	-175.776	-122.276	-255.223	-119.554	0
20519.511	-184.257	-124.141	-264.175	-121.415	0
20519.636	-192.738	-126.006	-273.175	-123.287	0
20519.761	-201.219	-127.871	-282.246	-125.246	0
20519.886	-209.701	-129.736	-291.376	-127.286	0
20520.011	-218.182	-131.601	-300.553	-129.398	0
20520.136	-226.663	-133.466	-309.766	-131.569	0
20520.261	-228.977	-137.872	-312.834	-136.327	0
20520.386	-229.920	-142.841	-314.548	-141.689	0
20520.511	-230.863	-147.811	-316.278	-147.087	0
20520.636	-231.807	-152.781	-318.023	-152.506	0
20520.761	-232.750	-157.751	-319.766	-157.841	0
20520.886	-233.693	-162.721	-321.508	-163.095	0
20521.011	-234.636	-167.691	-323.248	-168.271	0
20521.136	-235.580	-172.660	-324.985	-173.374	0
20521.261	-234.571	-171.237	-324.765	-172.012	0
20521.386	-235.649	-171.431	-326.616	-172.214	0
20521.511	-241.289	-176.110	-333.020	-176.846	0
20521.636	-246.929	-180.789	-339.446	-181.434	0
20521.761	-252.569	-185.467	-345.919	-186.029	0
20521.886	-253.758	-182.378	-347.991	-182.867	0
20522.011	-254.217	-178.016	-349.352	-178.448	0
20522.136	-254.676	-173.655	-350.727	-174.043	0
20522.261	-255.135	-169.293	-352.114	-169.655	0
20522.386	-255.612	-164.984	-353.532	-165.336	0
20522.511	-257.899	-165.862	-356.772	-166.218	0
20522.636	-260.186	-166.740	-360.044	-167.115	0
20522.761	-262.473	-167.618	-363.350	-168.036	0
20522.886	-264.760	-168.495	-366.691	-168.979	0
20523.011	-267.047	-169.373	-370.068	-169.942	0
20523.136	-269.334	-170.251	-373.482	-170.926	0
20523.261	-271.621	-171.129	-376.934	-171.930	0
20523.386	-273.908	-172.007	-380.425	-172.952	0
20523.511	-276.195	-172.885	-383.954	-173.990	0
20523.636	-278.482	-173.763	-387.522	-175.042	0
20523.761	-280.769	-174.641	-391.110	-176.123	0
20523.886	-283.056	-175.519	-394.720	-177.231	0
20524.011	-285.343	-176.397	-398.354	-178.364	0
20524.136	-287.630	-177.275	-402.012	-179.524	0
20524.261	-289.917	-178.153	-405.697	-180.708	0
20524.386	-298.636	-181.240	-415.840	-184.125	0
20524.511	-307.905	-184.517	-426.625	-187.759	0
20524.636	-317.174	-187.794	-437.532	-191.413	0
20524.761	-326.443	-191.070	-448.543	-195.048	0
20524.886	-335.712	-194.347	-459.642	-198.673	0
20525.011	-332.374	-197.214	-458.206	-201.884	0
20525.136	-331.827	-198.973	-459.491	-203.961	0
20525.261	-336.248	-199.088	-465.707	-204.376	0
20525.386	-340.670	-199.203	-471.920	-204.786	0
20525.511	-345.092	-199.317	-478.118	-205.193	0
20525.636	-349.514	-199.432	-484.299	-205.598	0
20525.761	-353.935	-199.547	-490.523	-206.021	0
20525.886	-358.357	-199.661	-496.795	-206.462	0
20526.011	-362.779	-199.776	-503.120	-206.920	0
20526.136	-367.201	-199.891	-509.500	-207.394	0
20526.261	-382.186	-210.789	-526.505	-218.667	0
20526.386	-402.534	-227.160	-549.066	-235.446	0
20526.511	-422.881	-243.531	999.000	999.000	0
20526.636	-423.294	-243.388	-555.397	-236.012	0
20526.761	-407.777	-230.047	-542.588	-223.085	0
20526.886	-408.258	-231.446	999.000	999.000	0
20527.011	-409.228	-233.294	999.000	999.000	0
20527.136	-410.198	-235.143	999.000	999.000	0
20527.261	-412.787	-236.933	999.000	999.000	0
20527.386	-419.207	-238.584	999.000	999.000	0
20527.511	-425.626	-240.234	999.000	999.000	0
20527.636	-431.220	-243.792	-598.382	-250.313	0
20527.761	-434.496	-252.702	-604.045	-259.567	0
20527.886	-437.772	-261.613	-609.731	-268.844	0
20528.011	-441.047	-270.524	-615.439	-278.146	0
20528.136	-444.323	-279.434	-621.167	-287.472	0
20528.261	-449.286	-284.446	-628.599	-292.925	0
20528.386	-456.749	-283.678	-638.521	-292.622	0
20528.511	-464.213	-282.910	-648.401	-292.321	0
20528.636	-471.676	-282.143	-658.239	-292.013	0
20528.761	-479.140	-281.375	-668.080	-291.667	0
20528.886	-487.734	-281.228	-679.049	-291.905	0
20529.011	-501.394	-283.862	-695.082	-294.886	0
20529.136	-515.054	-286.496	-711.088	-297.812	0
20529.261	-528.433	-289.140	-726.782	-300.701	0
20529.386	-519.436	-292.663	-720.067	-304.424	0
20529.511	-510.439	-296.186	-713.391	-308.186	0
20529.636	-524.356	-296.796	-729.669	-309.074	0
20529.761	-536.743	-299.340	-744.401	-311.915	0
20529.886	-544.341	-305.736	-754.329	-318.643	0
20530.011	-550.891	-309.195	-763.206	-322.517	0
20530.136	-557.441	-312.654	-772.074	-326.461	0
20530.261	-563.991	-316.113	-780.922	-330.472	0
20530.386	-570.541	-319.572	-789.750	-334.552	0
20530.511	-577.091	-323.030	-798.614	-338.710	0
20530.636	-583.641	-326.489	-807.502	-342.922	0
20530.761	-590.191	-329.948	-816.303	-347.054	0
20530.886	-596.742	-333.407	-825.001	-351.096	0
20531.011	-603.292	-336.866	-833.584	-355.046	0
20531.136	-609.842	-340.325	-842.049	-358.909	0
20531.261	-616.392	-343.783	-850.398	-362.689	0
20531.386	-622.942	-347.242	-858.634	-366.391	0
20531.511	-629.492	-350.701	-866.761	-370.021	0
20531.636	-636.042	-354.160	-874.798	-373.588	0
20531.761	-642.592	-357.619	-882.875	-377.121	0
20531.886	-649.142	-361.077	-891.014	-380.623	0
20532.011	-655.692	-364.536	-899.240	-384.098	0
20532.136	-662.242	-367.995	-907.566	-387.548	0
20532.261	-668.793	-371.454	-915.995	-390.975	0
20532.386	-675.161	-374.909	-924.340	-394.377	0
20532.511	-675.465	-378.250	-926.703	-397.640	0
20532.636	-675.770	-381.590	-929.147	-400.906	0
20532.761	-676.075	-384.930	-931.458	-404.204	0
20532.886	-676.380	-388.271	-933.637	-407.536	0
20533.011	-676.685	-391.611	-935.686	-410.902	0
20533.136	-676.990	-394.952	-937.608	-414.303	0
20533.261	-677.295	-398.292	-939.410	-417.739	0
20533.386	-677.600	-401.633	-941.101	-421.213	0
20533.511	-680.645	-405.703	-945.423	-425.458	0
20533.636	-685.290	-410.201	-951.251	-430.154	0
20533.761	-689.935	-414.698	-957.086	-434.814	0
20533.886	-694.579	-419.195	-962.930	-439.436	0
20534.011	-699.224	-423.692	-968.787	-444.017	0
20534.136	-702.904	-428.517	-973.692	-448.882	0
20534.261	-704.859	-433.929	-976.892	-454.294	0
20534.386	-706.815	-439.340	-980.133	-459.674	0
20534.511	-708.770	-444.752	-983.425	-465.020	0
20534.636	-710.726	-450.163	-986.770	-470.329	0
20534.761	-718.869	-455.574	-996.359	-475.623	0
20534.886	-734.188	-460.982	-1013.184	-480.862	0
20535.011	-749.506	-466.391	-1030.077	-486.004	0
20535.136	-756.638	-470.352	-1038.861	-489.601	0
20535.261	-751.305	-472.109	-1035.235	-490.958	0
20535.386	-745.972	-473.866	-1031.616	-492.342	0
20535.511	-740.638	-475.623	-1028.006	-493.755	0
20535.636	-735.305	-477.380	-1024.401	-495.204	0
20535.761	-730.104	-479.201	-1020.881	-496.780	0
20535.886	-736.475	-486.571	-1028.889	-503.968	0
20536.011	-742.845	-493.940	-1036.939	-511.149	0
20536.136	-749.216	-501.310	-1045.030	-518.324	0
20536.261	-755.587	-508.679	-1053.157	-525.498	0
20536.386	-761.957	-516.049	-1061.303	-532.682	0
20536.511	-769.258	-517.788	-1070.385	-534.249	0
20536.636	-776.561	-519.506	-1079.419	-535.800	0
20536.761	-783.865	-521.225	-1088.494	-537.319	0
20536.886	-791.168	-522.943	-1097.612	-538.810	0
20537.011	-798.472	-524.662	-1106.771	-540.279	0
20537.136	-805.776	-526.380	-1115.964	-541.723	0
20537.261	-813.079	-528.099	-1125.187	-543.142	0
20537.386	-820.383	-529.817	-1134.435	-544.532	0
20537.511	-809.716	-540.290	-1125.732	-554.646	0
20537.636	-798.378	-551.090	-1116.528	-565.124	0
20537.761	-787.040	-561.890	-1107.366	-575.640	0
20537.886	-778.276	-572.428	-1100.819	-585.934	0
20538.011	-777.533	-582.152	-1102.328	-595.445	0
20538.136	-776.791	-591.876	-1103.835	-604.903	0
20538.261	-776.643	-601.199	-1105.899	-613.812	0
20538.386	-782.186	-606.695	-1113.607	-618.757	0
20538.511	-787.730	-612.191	-1121.248	-623.594	0
20538.636	-793.273	-617.687	-1128.833	-628.328	0
20538.761	-798.816	-623.183	-1136.384	-632.982	0
20538.886	-811.117	-625.048	-1150.649	-633.962	0
20539.011	-811.717	-628.483	-1153.192	-636.421	0
20539.136	-805.669	-634.164	-1149.052	-641.091	0
20539.261	-807.839	-636.857	-1153.088	-642.784	0
20539.386	-810.010	-639.550	-1157.101	-644.433	0
20539.511	-815.190	-640.760	-1164.101	-644.553	0
20539.636	-827.222	-638.596	-1177.936	-641.223	0
20539.761	-829.180	-642.451	-1181.724	-643.840	0
20539.886	-823.112	-651.101	-1177.476	-651.239	0
20540.011	-820.851	-653.030	-1176.983	-651.922	0
20540.136	-819.359	-653.604	-1177.250	-651.284	0
20540.261	-817.868	-654.178	-1177.522	-650.683	0
20540.386	-816.376	-654.752	-1177.798	-650.120	0
20540.511	-815.332	-653.529	-1178.527	-647.801	0
20540.636	-814.311	-652.217	-1179.299	-645.407	0
20540.761	-813.290	-650.904	-1180.078	-642.985	0
20540.886	-812.269	-649.591	-1180.855	-640.548	0
20541.011	-811.248	-648.278	-1181.629	-638.097	0
20541.136	-804.335	-661.872	-1176.507	-650.538	0
20541.261	-793.657	-684.992	-1167.609	-672.663	0
20541.386	-788.081	-702.121	-1163.924	-689.126	0
20541.511	-801.431	-697.025	-1179.105	-683.654	0
20541.636	-814.781	-691.928	-1194.180	-677.855	0
20541.761	-828.130	-686.832	-1209.162	-671.740	0
20541.886	-841.480	-681.735	-1224.035	-665.379	0
20542.011	-854.830	-676.639	-1238.801	-658.884	0
20542.136	-861.925	-679.216	-1247.263	-659.917	0
20542.261	-867.621	-683.510	-1254.216	-662.671	0
20542.386	-872.199	-686.420	-1259.916	-664.103	0
20542.511	-873.853	-685.712	-1262.588	-661.962	0
20542.636	-875.507	-685.003	-1265.270	-659.826	0
20542.761	-877.160	-684.294	-1267.956	-657.719	0
20542.886	-878.998	-683.656	-1270.830	-655.709	0
20543.011	-885.794	-684.934	-1278.666	-655.639	0
20543.136	-892.591	-686.211	-1286.401	-655.613	0
20543.261	-899.388	-687.489	-1294.033	-655.626	0
20543.386	-906.184	-688.766	-1301.569	-655.689	0
20543.511	-912.981	-690.044	-1309.027	-655.814	0
20543.636	-919.778	-691.321	-1316.404	-655.990	0
20543.761	-926.574	-692.598	-1323.714	-656.198	0
20543.886	-933.371	-693.876	-1330.954	-656.430	0
20544.011	-940.168	-695.153	-1338.127	-656.676	0
20544.136	-946.964	-696.431	-1345.251	-656.953	0
20544.261	-953.761	-697.708	-1352.329	-657.259	0
20544.386	-960.558	-698.986	-1359.358	-657.591	0
20544.511	-967.354	-700.263	-1366.341	-657.944	0
20544.636	-974.151	-701.540	-1373.272	-658.318	0
20544.761	-980.948	-702.818	-1380.115	-658.738	0
20544.886	-987.744	-704.095	-1386.861	-659.220	0
20545.011	-994.541	-705.373	-1393.512	-659.759	0
20545.136	-1001.338	-706.650	-1400.067	-660.352	0
20545.261	-1008.134	-707.927	-1406.524	-660.999	0
20545.386	-1014.931	-709.205	-1412.890	-661.698	0
20545.511	-1021.728	-710.482	-1419.207	-662.483	0
20545.636	-1028.524	-711.760	-1425.480	-663.348	0
20545.761	-1035.321	-713.037	-1431.754	-664.274	0
20545.886	-1042.117	-714.315	-1438.031	-665.256	0
20546.011	-1048.914	-715.592	-1444.309	-666.291	0
20546.136	-1055.711	-716.869	999.000	999.000	0
20546.261	-1062.507	-718.147	999.000	999.000	0
20546.386	-1069.304	-719.424	999.000	999.000	0
20546.511	-1076.101	-720.702	999.000	999.000	0
20546.636	-1082.897	-721.979	999.000	999.000	0
20546.761	-1089.694	-723.257	-1483.071	-675.387	0
20546.886	-1096.491	-724.534	-1489.549	-676.974	0
20547.011	-1103.287	-725.811	-1496.042	-678.632	0
20547.136	-1110.084	-727.089	-1502.553	-680.366	0
20547.261	-1116.881	-728.366	-1509.090	-682.170	0
20547.386	-1123.677	-729.644	-1515.657	-684.046	0
20547.511	-1130.474	-730.921	-1522.259	-685.950	0
20547.636	-1137.271	-732.199	-1528.911	-687.870	0
20547.761	-1144.067	-733.476	-1535.667	-689.812	0
20547.886	-1150.864	-734.753	-1542.527	-691.779	0
20548.011	-1157.661	-736.031	-1549.494	-693.778	0
20548.136	-1164.457	-737.308	-1556.557	-695.794	0
20548.261	-1171.254	-738.586	-1563.691	-697.771	0
20548.386	-1178.051	-739.863	-1570.895	-699.714	0
20548.511	-1184.847	-741.140	-1578.169	-701.634	0
20548.636	-1177.962	-740.531	-1571.828	-701.650	0
20548.761	-1147.993	-736.737	-1542.366	-698.472	0
20548.886	-1118.024	-732.943	-1512.722	-695.233	0
20549.011	-1088.055	-729.150	-1482.806	-691.674	0
20549.136	-1058.086	-725.356	-1452.712	-687.582	0
20549.261	-1028.117	-721.562	999.000	999.000	0
20549.386	-998.147	-717.769	-1392.621	-677.523	0
20549.511	-968.178	-713.975	-1362.809	-672.282	0
20549.636	-938.209	-710.181	-1333.352	-667.044	0
20549.761	-920.870	-706.959	-1316.798	-662.594	0
20549.886	-932.298	-705.041	-1329.209	-659.666	0
20550.011	-943.726	-703.122	-1341.581	-656.556	0
20550.136	-955.154	-701.203	-1353.941	-653.324	0
20550.261	-966.583	-699.285	-1366.296	-649.968	0
20550.386	-978.011	-697.366	-1378.650	-646.480	0
20550.511	-989.439	-695.447	-1390.970	-642.913	0
20550.636	-1000.867	-693.528	-1403.232	-639.295	0
20550.761	-1008.576	-692.472	-1411.669	-636.518	0
20550.886	-1009.576	-692.972	-1413.314	-635.304	0
20551.011	-1010.575	-693.471	-1414.913	-634.135	0
20551.136	-1011.574	-693.971	-1416.465	-633.009	0
20551.261	-1012.574	-694.471	-1417.973	-631.926	0
20551.386	-1013.573	-694.971	-1419.434	-630.885	0
20551.511	-1014.572	-695.470	-1420.852	-629.886	0
20551.636	-1015.572	-695.970	-1422.231	-628.926	0
20551.761	-1016.571	-696.470	-1423.639	-627.978	0
20551.886	-1017.570	-696.969	-1425.073	-627.042	0
20552.011	-1018.570	-697.469	-1426.534	-626.116	0
20552.136	-1018.546	-697.564	-1427.000	-624.795	0
20552.261	-1014.835	-696.198	-1423.812	-622.013	0
20552.386	-1011.123	-694.832	-1420.694	-619.185	0
20552.511	-1007.412	-693.466	-1417.645	-616.312	0
20552.636	-1003.701	-692.100	-1414.666	-613.396	0
20552.761	-999.990	-690.734	-1411.762	-610.487	0
20552.886	-996.279	-689.368	-1408.929	-607.588	0
20553.011	-992.567	-688.002	-1406.168	-604.704	0
20553.136	-988.856	-686.636	-1403.468	-601.837	0
20553.261	-985.145	-685.270	-1400.823	-598.988	0
20553.386	-981.434	-683.904	-1398.229	-596.158	0
20553.511	-977.723	-682.538	-1395.685	-593.349	0
20553.636	-974.011	-681.172	-1393.187	-590.558	0
20553.761	-970.300	-679.806	-1390.746	-587.796	0
20553.886	-966.589	-678.440	-1388.360	-585.064	0
20554.011	-962.878	-677.074	-1386.024	-582.399	0
20554.136	-959.167	-675.708	-1383.738	-579.799	0
20554.261	-955.455	-674.342	-1381.502	-577.271	0
20554.386	-976.399	-676.605	-1403.968	-578.442	0
20554.511	-998.922	-679.101	-1427.875	-579.548	0
20554.636	-1021.445	-681.596	-1451.599	-580.481	0
20554.761	-1040.590	-682.056	-1471.834	-579.395	0
20554.886	-1052.777	-678.324	-1485.087	-574.224	0
20555.011	-1064.964	-674.591	999.000	999.000	0
20555.136	-1077.151	-670.859	999.000	999.000	0
20555.261	-1089.339	-667.126	999.000	999.000	0
20555.386	-1101.526	-663.393	-1539.472	-555.882	0
20555.511	-1113.713	-659.661	-1553.198	-551.462	0
20555.636	-1125.900	-655.928	-1567.064	-547.215	0
20555.761	-1138.087	-652.196	-1581.081	-543.205	0
20555.886	-1150.274	-648.463	-1595.250	-539.455	0
20556.011	-1153.532	-647.797	-1600.632	-539.041	0
20556.136	-1144.728	-651.275	-1593.970	-542.848	0
20556.261	-1135.923	-654.752	-1587.163	-546.475	0
20556.386	-1127.119	-658.230	-1580.217	-549.935	0
20556.511	-1118.314	-661.707	-1573.142	-553.237	0
20556.636	-1109.510	-665.185	-1565.945	-556.388	0
20556.761	-1100.705	-668.662	-1558.646	-559.405	0
20556.886	-1091.901	-672.140	-1551.246	-562.291	0
20557.011	-1083.096	-675.617	-1543.751	-565.053	0
20557.136	-1074.292	-679.095	-1536.166	-567.693	0
20557.261	-1068.944	-681.249	999.000	999.000	0
20557.386	-1069.389	-681.185	999.000	999.000	0
20557.511	-1069.833	-681.122	999.000	999.000	0
20557.636	-1070.277	-681.058	999.000	999.000	0
20557.761	-1070.721	-680.995	999.000	999.000	0
20557.886	-1071.165	-680.931	999.000	999.000	0
20558.011	-1071.610	-680.868	999.000	999.000	0
20558.136	-1072.054	-680.804	999.000	999.000	0
20558.261	-1072.498	-680.741	999.000	999.000	0
20558.386	-1072.942	-680.677	999.000	999.000	0
20558.511	-1073.387	-680.614	999.000	999.000	0
20558.636	-1073.831	-680.550	999.000	999.000	0
20558.761	-1074.275	-680.487	999.000	999.000	0
20558.886	-1074.719	-680.423	999.000	999.000	0
20559.011	-1075.163	-680.360	999.000	999.000	0
20559.136	-1075.608	-680.296	999.000	999.000	0
20559.261	-1076.052	-680.233	999.000	999.000	0
20559.386	-1076.496	-680.169	999.000	999.000	0
20559.511	-1076.940	-680.106	999.000	999.000	0
20559.636	-1077.384	-680.042	999.000	999.000	0
20559.761	-1077.829	-679.979	999.000	999.000	0
20559.886	-1078.273	-679.915	999.000	999.000	0
20560.011	-1078.717	-679.852	999.000	999.000	0
20560.136	-1079.161	-679.788	999.000	999.000	0
20560.261	-1079.605	-679.725	999.000	999.000	0
20560.386	-1080.050	-679.661	999.000	999.000	0
20560.511	-1080.494	-679.598	999.000	999.000	0
20560.636	-1080.938	-679.534	999.000	999.000	0
20560.761	-1081.382	-679.471	999.000	999.000	0
20560.886	-1081.826	-679.407	999.000	999.000	0
20561.011	-1082.271	-679.344	-1573.670	-546.809	0
20561.136	-1082.715	-679.280	-1574.904	-546.130	0
20561.261	-1083.159	-679.217	-1576.162	-545.445	0
20561.386	-1083.603	-679.153	-1577.446	-544.756	0
20561.511	-1084.047	-679.090	-1578.754	-544.061	0
20561.636	-1084.492	-679.026	-1580.086	-543.362	0
20561.761	-1084.936	-678.963	-1581.418	-542.665	0
20561.886	-1085.380	-678.899	-1582.749	-541.973	0
20562.011	-1085.824	-678.836	-1584.080	-541.284	0
20562.136	-1086.268	-678.772	-1585.410	-540.598	0
20562.261	-1086.713	-678.709	-1586.739	-539.916	0
20562.386	-1087.157	-678.645	-1588.068	-539.238	0
20562.511	-1087.601	-678.582	-1589.397	-538.563	0
20562.636	-1088.045	-678.518	-1590.723	-537.891	0
20562.761	-1082.448	-678.003	-1585.999	-536.775	0
20562.886	-1071.273	-677.072	-1575.664	-535.184	0
20563.011	-1060.099	-676.141	999.000	999.000	0
20563.136	-1058.393	-674.628	999.000	999.000	0
20563.261	-1057.856	-673.043	999.000	999.000	0
20563.386	-1057.320	-671.457	999.000	999.000	0
20563.511	-1056.784	-669.872	999.000	999.000	0
20563.636	-1056.247	-668.287	999.000	999.000	0
20563.761	-1055.711	-666.702	999.000	999.000	0
20563.886	-1055.175	-665.116	999.000	999.000	0
20564.011	-1054.638	-663.531	999.000	999.000	0
20564.136	-1054.102	-661.946	999.000	999.000	0
20564.261	-1053.566	-660.361	999.000	999.000	0
20564.386	-1053.029	-658.776	999.000	999.000	0
20564.511	-1052.493	-657.190	999.000	999.000	0
20564.636	-1051.957	-655.605	999.000	999.000	0
20564.761	-1051.420	-654.020	999.000	999.000	0
20564.886	-1050.884	-652.435	999.000	999.000	0
20565.011	-1050.348	-650.849	999.000	999.000	0
20565.136	-1049.811	-649.264	999.000	999.000	0
20565.261	-1049.275	-647.679	999.000	999.000	0
20565.386	-1048.739	-646.094	999.000	999.000	0
20565.511	-1048.202	-644.509	999.000	999.000	0
20565.636	-1047.666	-642.923	999.000	999.000	0
20565.761	-1047.130	-641.338	999.000	999.000	0
20565.886	-1046.593	-639.753	999.000	999.000	0
20566.011	-1049.311	-639.770	999.000	999.000	0
20566.136	-1053.816	-640.666	999.000	999.000	0
20566.261	-1058.321	-641.563	999.000	999.000	0
20566.386	-1062.826	-642.459	999.000	999.000	0
20566.511	-1067.331	-643.356	999.000	999.000	0
20566.636	-1071.835	-644.252	999.000	999.000	0
20566.761	-1076.340	-645.149	999.000	999.000	0
20566.886	-1080.845	-646.045	999.000	999.000	0
20567.011	-1085.350	-646.942	999.000	999.000	0
20567.136	-1089.854	-647.838	-1744.370	-550.845	0
20567.261	-1094.359	-648.735	-1749.375	-551.420	0
20567.386	-1098.864	-649.631	-1754.427	-552.114	0
