Tag:	49806
Reference:	tu22_9432_05
Coast Distance (km): 	30.0
Estimation Time Delay (days): 	0.0

CNES Day	Lon	Lat	LonCor	LatCor	Delay
20295.967	-53.947	5.742	-53.947	5.742	0
20296.092	-53.950	5.744	-54.923	4.773	0
20296.217	-53.952	5.745	-54.926	4.774	0
20296.342	-53.955	5.747	-54.928	4.776	0
20296.467	-53.957	5.748	-54.931	4.778	0
20296.592	-53.960	5.750	-54.933	4.779	0
20296.717	-53.946	5.804	-54.919	4.833	0
20296.842	-53.932	5.857	-54.905	4.887	0
20296.967	-53.918	5.911	-54.891	4.940	0
20297.092	-53.904	5.964	-54.877	4.994	0
20297.217	-53.890	6.018	-54.863	5.048	0
20297.342	-53.876	6.071	-54.849	5.101	0
20297.467	-53.862	6.125	-54.835	5.155	0
20297.592	-53.848	6.178	-54.812	5.207	0
20297.717	-53.834	6.232	-54.791	5.257	0
20297.842	-53.820	6.285	-54.770	5.306	0
20297.967	-53.806	6.339	-54.749	5.354	0
20298.092	-53.820	6.429	-54.755	5.439	0
20298.217	-53.834	6.520	-54.762	5.523	0
20298.342	-53.836	6.605	-54.756	5.602	0
20298.467	-53.840	6.690	-54.749	5.680	0
20298.592	-53.845	6.776	-54.741	5.757	0
20298.717	-53.857	6.866	-54.734	5.835	0
20298.842	-53.863	6.954	-54.718	5.910	0
20298.967	-53.869	7.042	-54.698	5.984	0
20299.092	-53.864	7.109	-54.660	6.036	0
20299.217	-53.867	7.177	-54.626	6.088	0
20299.342	-53.872	7.245	-54.590	6.139	0
20299.467	-53.879	7.313	-54.551	6.191	0
20299.592	-53.902	7.372	-54.526	6.234	0
20299.717	-53.928	7.429	-54.500	6.274	0
20299.842	-53.944	7.489	-54.461	6.319	0
20299.967	-53.978	7.546	-54.437	6.359	0
20300.092	-54.013	7.602	-54.410	6.397	0
20300.217	-54.049	7.658	-54.384	6.436	0
20300.342	-54.091	7.705	-54.363	6.465	0
20300.467	-54.136	7.748	-54.345	6.490	0
20300.592	-54.162	7.832	-54.307	6.554	0
20300.717	-54.187	7.915	-54.267	6.618	0
20300.842	-54.212	7.999	-54.226	6.681	0
20300.967	-54.238	8.082	-54.186	6.745	0
20301.092	-54.263	8.166	-54.147	6.808	0
20301.217	-54.289	8.250	-54.108	6.871	0
20301.342	-54.314	8.333	-54.072	6.934	0
20301.467	-54.339	8.417	-54.040	6.997	0
20301.592	-54.365	8.501	-54.012	7.059	0
20301.717	-54.390	8.584	-53.989	7.120	0
20301.842	-54.416	8.668	-53.970	7.182	0
20301.967	-54.441	8.751	-53.956	7.242	0
20302.092	-54.466	8.835	-53.947	7.303	0
20302.217	-54.492	8.919	-53.942	7.363	0
20302.342	-54.517	9.002	-53.942	7.423	0
20302.467	-54.543	9.086	-53.948	7.483	0
20302.592	-54.568	9.169	-53.959	7.543	0
20302.717	-54.593	9.253	-53.975	7.602	0
20302.842	-54.619	9.337	-53.996	7.662	0
20302.967	-54.644	9.420	-54.022	7.721	0
20303.092	-54.670	9.504	-54.053	7.781	0
20303.217	-54.695	9.588	-54.089	7.840	0
20303.342	-54.720	9.671	-54.129	7.900	0
20303.467	-54.671	9.770	-54.097	7.976	0
20303.592	-54.621	9.870	-54.071	8.055	0
20303.717	-54.572	9.969	-54.051	8.140	0
20303.842	-54.520	10.011	-54.033	8.172	0
20303.967	-54.468	10.053	-54.017	8.209	0
20304.092	-54.416	10.095	-54.003	8.251	0
20304.217	-54.364	10.137	-53.991	8.296	0
20304.342	-54.312	10.179	-53.980	8.345	0
20304.467	-54.260	10.222	-53.970	8.397	0
20304.592	-54.208	10.264	-53.960	8.450	0
20304.717	-54.152	10.296	-53.945	8.494	0
20304.842	-54.092	10.325	-53.924	8.537	0
20304.967	-54.031	10.355	-53.902	8.582	0
20305.092	-53.971	10.385	-53.879	8.627	0
20305.217	-53.910	10.415	-53.855	8.672	0
20305.342	-53.850	10.445	-53.829	8.717	0
20305.467	-53.789	10.474	-53.802	8.761	0
20305.592	-53.729	10.504	-53.774	8.803	0
20305.717	-53.639	10.522	-53.714	8.833	0
20305.842	-53.552	10.542	-53.654	8.862	0
20305.967	-53.466	10.562	-53.594	8.890	0
20306.092	-53.433	10.602	-53.582	8.937	0
20306.217	-53.399	10.643	-53.568	8.982	0
20306.342	-53.365	10.683	-53.550	9.026	0
20306.467	-53.332	10.724	-53.530	9.067	0
20306.592	-53.323	10.772	-53.532	9.115	0
20306.717	-53.287	10.812	-53.504	9.153	0
20306.842	-53.254	10.852	-53.477	9.191	0
20306.967	-53.221	10.892	-53.448	9.228	0
20307.092	-53.189	10.933	-53.418	9.267	0
20307.217	-53.157	10.975	-53.388	9.307	0
20307.342	-53.125	11.016	-53.356	9.346	0
20307.467	-53.093	11.058	-53.322	9.386	0
20307.592	-53.038	11.095	-53.264	9.421	0
20307.717	-52.981	11.130	-53.203	9.455	0
20307.842	-52.922	11.164	-53.139	9.488	0
20307.967	-52.863	11.198	-53.072	9.521	0
20308.092	-52.801	11.231	-53.005	9.553	0
20308.217	-52.737	11.261	-52.934	9.585	0
20308.342	-52.711	11.306	-52.903	9.631	0
20308.467	-52.684	11.350	-52.871	9.678	0
20308.592	-52.657	11.394	-52.840	9.726	0
20308.717	-52.631	11.438	-52.809	9.775	0
20308.842	-52.604	11.482	-52.779	9.824	0
20308.967	-52.578	11.526	-52.749	9.873	0
20309.092	-52.551	11.571	-52.718	9.924	0
20309.217	-52.524	11.615	-52.688	9.974	0
20309.342	-52.502	11.662	-52.663	10.028	0
20309.467	-52.480	11.710	-52.637	10.083	0
20309.592	-52.458	11.758	-52.611	10.138	0
20309.717	-52.436	11.805	-52.585	10.193	0
20309.842	-52.414	11.853	-52.560	10.249	0
20309.967	-52.392	11.900	-52.534	10.305	0
20310.092	-52.370	11.948	-52.508	10.360	0
20310.217	-52.348	11.996	-52.481	10.417	0
20310.342	-52.322	12.036	-52.450	10.465	0
20310.467	-52.296	12.076	-52.418	10.513	0
20310.592	-52.270	12.115	-52.386	10.561	0
20310.717	-52.244	12.155	-52.353	10.609	0
20310.842	-52.225	12.216	-52.327	10.677	0
20310.967	-52.204	12.270	-52.297	10.738	0
20311.092	-52.192	12.320	-52.276	10.795	0
20311.217	-52.174	12.367	-52.247	10.848	0
20311.342	-52.151	12.412	-52.213	10.899	0
20311.467	-52.132	12.464	-52.182	10.956	0
20311.592	-52.114	12.516	-52.150	11.014	0
20311.717	-52.099	12.572	-52.122	11.075	0
20311.842	-52.090	12.632	-52.098	11.138	0
20311.967	-52.054	12.668	-52.045	11.178	0
20312.092	-52.014	12.704	-51.989	11.218	0
20312.217	-52.006	12.749	-51.964	11.266	0
20312.342	-51.999	12.795	-51.938	11.315	0
20312.467	-51.991	12.841	-51.912	11.363	0
20312.592	-51.983	12.886	-51.885	11.411	0
20312.717	-51.976	12.932	-51.858	11.458	0
20312.842	-51.968	12.978	-51.829	11.506	0
20312.967	-51.960	13.023	-51.801	11.552	0
20313.092	-51.953	13.069	-51.771	11.599	0
20313.217	-51.957	13.119	-51.753	11.650	0
20313.342	-51.960	13.168	-51.734	11.700	0
20313.467	-51.964	13.218	-51.715	11.750	0
20313.592	-51.968	13.267	-51.695	11.800	0
20313.717	-51.972	13.317	-51.676	11.849	0
20313.842	-51.976	13.367	-51.657	11.898	0
20313.967	-51.979	13.416	-51.638	11.947	0
20314.092	-51.983	13.466	-51.619	11.996	0
20314.217	-51.987	13.515	-51.600	12.044	0
20314.342	-51.980	13.573	-51.571	12.100	0
20314.467	-51.974	13.631	-51.543	12.156	0
20314.592	-51.967	13.689	-51.516	12.211	0
20314.717	-51.961	13.747	-51.489	12.266	0
20314.842	-51.954	13.806	-51.463	12.320	0
20314.967	-51.947	13.864	-51.438	12.374	0
20315.092	-51.941	13.922	-51.414	12.428	0
20315.217	-51.934	13.980	-51.391	12.481	0
20315.342	-51.927	14.038	-51.367	12.535	0
20315.467	-51.920	14.097	-51.345	12.587	0
20315.592	-51.913	14.155	-51.324	12.640	0
20315.717	-51.889	14.213	-51.286	12.692	0
20315.842	-51.866	14.271	-51.249	12.744	0
20315.967	-51.843	14.330	-51.213	12.795	0
20316.092	-51.820	14.388	-51.177	12.846	0
20316.217	-51.797	14.446	-51.141	12.897	0
20316.342	-51.774	14.504	-51.106	12.949	0
20316.467	-51.747	14.563	-51.069	13.000	0
20316.592	-51.721	14.621	-51.032	13.051	0
20316.717	-51.696	14.678	-50.996	13.102	0
20316.842	-51.671	14.736	-50.961	13.154	0
20316.967	-51.645	14.793	-50.926	13.205	0
20317.092	-51.620	14.850	-50.892	13.256	0
20317.217	-51.594	14.908	-50.858	13.308	0
20317.342	-51.569	14.965	-50.824	13.361	0
20317.467	-51.545	15.022	-50.792	13.412	0
20317.592	-51.520	15.079	-50.759	13.465	0
20317.717	-51.495	15.136	-50.727	13.518	0
20317.842	-51.470	15.194	-50.694	13.573	0
20317.967	-51.444	15.253	-50.662	13.629	0
20318.092	-51.418	15.312	-50.630	13.687	0
20318.217	-51.389	15.375	-50.595	13.749	0
20318.342	-51.328	15.432	-50.528	13.806	0
20318.467	-51.277	15.491	-50.472	13.867	0
20318.592	-51.236	15.554	-50.428	13.933	0
20318.717	-51.199	15.616	-50.388	13.998	0
20318.842	-51.163	15.677	-50.350	14.064	0
20318.967	-51.120	15.737	-50.305	14.130	0
20319.092	-51.075	15.797	-50.259	14.196	0
20319.217	-51.017	15.858	-50.198	14.263	0
20319.342	-50.981	15.918	-50.161	14.331	0
20319.467	-50.956	15.978	-50.136	14.397	0
20319.592	-50.928	16.037	-50.106	14.464	0
20319.717	-50.900	16.096	-50.076	14.530	0
20319.842	-50.869	16.153	-50.042	14.593	0
20319.967	-50.838	16.209	-50.008	14.656	0
20320.092	-50.807	16.266	-49.972	14.717	0
20320.217	-50.775	16.323	-49.936	14.779	0
20320.342	-50.743	16.379	-49.897	14.838	0
20320.467	-50.708	16.434	-49.855	14.897	0
20320.592	-50.674	16.489	-49.813	14.953	0
20320.717	-50.649	16.540	-49.779	15.005	0
20320.842	-50.620	16.595	-49.740	15.061	0
20320.967	-50.591	16.651	-49.699	15.117	0
20321.092	-50.575	16.733	-49.672	15.197	0
20321.217	-50.554	16.797	-49.639	15.259	0
20321.342	-50.536	16.860	-49.608	15.319	0
20321.467	-50.509	16.920	-49.568	15.376	0
20321.592	-50.482	16.980	-49.527	15.433	0
20321.717	-50.472	17.060	-49.504	15.508	0
20321.842	-50.454	17.123	-49.473	15.568	0
20321.967	-50.435	17.187	-49.441	15.627	0
20322.092	-50.401	17.236	-49.393	15.672	0
20322.217	-50.366	17.282	-49.345	15.714	0
20322.342	-50.331	17.327	-49.297	15.755	0
20322.467	-50.297	17.372	-49.250	15.796	0
20322.592	-50.262	17.416	-49.202	15.837	0
20322.717	-50.228	17.460	-49.155	15.877	0
20322.842	-50.192	17.503	-49.108	15.917	0
20322.967	-50.156	17.544	-49.059	15.955	0
20323.092	-50.146	17.628	-49.038	16.037	0
20323.217	-50.132	17.710	-49.013	16.117	0
20323.342	-50.108	17.782	-48.980	16.186	0
20323.467	-50.083	17.846	-48.947	16.248	0
20323.592	-50.057	17.907	-48.914	16.306	0
20323.717	-50.033	17.981	-48.884	16.377	0
20323.842	-50.010	18.056	-48.856	16.450	0
20323.967	-49.994	18.134	-48.839	16.525	0
20324.092	-49.990	18.220	-48.835	16.609	0
20324.217	-49.934	18.278	-48.782	16.663	0
20324.342	-49.879	18.335	-48.730	16.718	0
20324.467	-49.823	18.390	-48.678	16.772	0
20324.592	-49.766	18.441	-48.626	16.824	0
20324.717	-49.705	18.489	-48.572	16.872	0
20324.842	-49.646	18.537	-48.519	16.923	0
20324.967	-49.588	18.583	-48.468	16.973	0
20325.092	-49.534	18.625	-48.422	17.019	0
20325.217	-49.477	18.667	-48.373	17.067	0
20325.342	-49.421	18.709	-48.323	17.115	0
20325.467	-49.368	18.753	-48.275	17.165	0
20325.592	-49.318	18.795	-48.229	17.215	0
20325.717	-49.268	18.837	-48.184	17.263	0
20325.842	-49.217	18.879	-48.137	17.311	0
20325.967	-49.171	18.922	-48.094	17.359	0
20326.092	-49.133	18.967	-48.057	17.408	0
20326.217	-49.095	19.014	-48.020	17.458	0
20326.342	-49.054	19.074	-47.979	17.521	0
20326.467	-49.015	19.130	-47.937	17.578	0
20326.592	-48.975	19.184	-47.894	17.632	0
20326.717	-48.935	19.243	-47.850	17.688	0
20326.842	-48.896	19.301	-47.805	17.743	0
20326.967	-48.856	19.360	-47.758	17.797	0
20327.092	-48.815	19.418	-47.709	17.849	0
20327.217	-48.775	19.476	-47.660	17.900	0
20327.342	-48.735	19.525	-47.609	17.940	0
20327.467	-48.694	19.574	-47.558	17.980	0
20327.592	-48.654	19.623	-47.506	18.019	0
20327.717	-48.609	19.680	-47.447	18.066	0
20327.842	-48.562	19.739	-47.385	18.118	0
20327.967	-48.517	19.794	-47.324	18.165	0
20328.092	-48.475	19.847	-47.265	18.213	0
20328.217	-48.424	19.882	-47.195	18.244	0
20328.342	-48.382	19.944	-47.135	18.303	0
20328.467	-48.339	20.006	-47.074	18.365	0
20328.592	-48.297	20.067	-47.014	18.429	0
20328.717	-48.270	20.122	-46.971	18.488	0
20328.842	-48.242	20.174	-46.927	18.544	0
20328.967	-48.211	20.221	-46.881	18.597	0
20329.092	-48.178	20.267	-46.836	18.647	0
20329.217	-48.145	20.311	-46.791	18.698	0
20329.342	-48.111	20.355	-46.747	18.749	0
20329.467	-48.070	20.395	-46.696	18.797	0
20329.592	-48.031	20.435	-46.650	18.846	0
20329.717	-47.989	20.471	-46.601	18.892	0
20329.842	-47.939	20.500	-46.545	18.932	0
20329.967	-47.889	20.529	-46.490	18.972	0
20330.092	-47.847	20.556	-46.443	19.011	0
20330.217	-47.802	20.585	-46.394	19.051	0
20330.342	-47.756	20.615	-46.343	19.092	0
20330.467	-47.709	20.642	-46.293	19.129	0
20330.592	-47.663	20.668	-46.243	19.166	0
20330.717	-47.617	20.695	-46.193	19.202	0
20330.842	-47.571	20.727	-46.143	19.244	0
20330.967	-47.525	20.763	-46.092	19.288	0
20331.092	-47.479	20.804	-46.042	19.337	0
20331.217	-47.434	20.847	-45.991	19.387	0
20331.342	-47.390	20.889	-45.942	19.434	0
20331.467	-47.344	20.937	-45.890	19.488	0
20331.592	-47.298	20.985	-45.838	19.541	0
20331.717	-47.253	21.033	-45.784	19.594	0
20331.842	-47.204	21.082	-45.727	19.645	0
20331.967	-47.157	21.130	-45.671	19.695	0
20332.092	-47.126	21.183	-45.632	19.748	0
20332.217	-47.099	21.237	-45.596	19.802	0
20332.342	-47.074	21.292	-45.563	19.856	0
20332.467	-47.047	21.348	-45.527	19.910	0
20332.592	-47.019	21.404	-45.489	19.963	0
20332.717	-46.986	21.464	-45.447	20.018	0
20332.842	-46.955	21.522	-45.408	20.070	0
20332.967	-46.926	21.580	-45.371	20.120	0
20333.092	-46.899	21.637	-45.338	20.167	0
20333.217	-46.878	21.694	-45.311	20.212	0
20333.342	-46.834	21.761	-45.260	20.266	0
20333.467	-46.789	21.828	-45.211	20.319	0
20333.592	-46.716	21.870	-45.130	20.345	0
20333.717	-46.649	21.918	-45.058	20.377	0
20333.842	-46.583	21.967	-44.986	20.410	0
20333.967	-46.511	22.020	-44.909	20.449	0
20334.092	-46.433	22.080	-44.826	20.497	0
20334.217	-46.354	22.135	-44.743	20.542	0
20334.342	-46.279	22.189	-44.665	20.588	0
20334.467	-46.219	22.238	-44.603	20.632	0
20334.592	-46.143	22.281	-44.525	20.671	0
20334.717	-46.079	22.332	-44.460	20.720	0
20334.842	-46.042	22.387	-44.424	20.773	0
20334.967	-46.010	22.440	-44.393	20.824	0
20335.092	-45.982	22.491	-44.365	20.874	0
20335.217	-45.955	22.542	-44.338	20.924	0
20335.342	-45.928	22.594	-44.310	20.974	0
20335.467	-45.898	22.648	-44.279	21.025	0
20335.592	-45.889	22.696	-44.267	21.070	0
20335.717	-45.877	22.746	-44.253	21.117	0
20335.842	-45.863	22.797	-44.236	21.165	0
20335.967	-45.845	22.852	-44.213	21.217	0
20336.092	-45.823	22.911	-44.184	21.273	0
20336.217	-45.801	22.971	-44.155	21.329	0
20336.342	-45.778	23.035	-44.124	21.389	0
20336.467	-45.748	23.100	-44.084	21.450	0
20336.592	-45.718	23.165	-44.043	21.510	0
20336.717	-45.687	23.231	-44.001	21.570	0
20336.842	-45.657	23.296	-43.958	21.629	0
20336.967	-45.600	23.356	-43.887	21.682	0
20337.092	-45.573	23.418	-43.848	21.737	0
20337.217	-45.545	23.481	-43.810	21.792	0
20337.342	-45.501	23.546	-43.756	21.850	0
20337.467	-45.472	23.612	-43.719	21.909	0
20337.592	-45.444	23.678	-43.683	21.968	0
20337.717	-45.415	23.744	-43.650	22.028	0
20337.842	-45.386	23.809	-43.618	22.090	0
20337.967	-45.337	23.843	-43.566	22.120	0
20338.092	-45.285	23.876	-43.514	22.150	0
20338.217	-45.232	23.908	-43.462	22.181	0
20338.342	-45.197	23.965	-43.430	22.238	0
20338.467	-45.164	24.024	-43.401	22.299	0
20338.592	-45.129	24.079	-43.371	22.356	0
20338.717	-45.092	24.130	-43.341	22.411	0
20338.842	-45.053	24.179	-43.308	22.465	0
20338.967	-45.011	24.229	-43.272	22.521	0
20339.092	-44.972	24.282	-43.241	22.580	0
20339.217	-44.943	24.341	-43.218	22.645	0
20339.342	-44.913	24.400	-43.194	22.710	0
20339.467	-44.879	24.447	-43.164	22.763	0
20339.592	-44.858	24.491	-43.147	22.812	0
20339.717	-44.832	24.533	-43.126	22.858	0
20339.842	-44.806	24.574	-43.104	22.904	0
20339.967	-44.780	24.616	-43.081	22.949	0
20340.092	-44.754	24.657	-43.057	22.993	0
20340.217	-44.728	24.698	-43.033	23.037	0
20340.342	-44.703	24.740	-43.009	23.080	0
20340.467	-44.679	24.782	-42.987	23.123	0
20340.592	-44.643	24.839	-42.951	23.180	0
20340.717	-44.608	24.895	-42.914	23.236	0
20340.842	-44.572	24.952	-42.878	23.291	0
20340.967	-44.537	25.009	-42.842	23.344	0
20341.092	-44.501	25.065	-42.806	23.397	0
20341.217	-44.465	25.122	-42.770	23.449	0
20341.342	-44.430	25.179	-42.734	23.501	0
20341.467	-44.394	25.235	-42.698	23.552	0
20341.592	-44.359	25.292	-42.664	23.604	0
20341.717	-44.323	25.349	-42.630	23.655	0
20341.842	-44.287	25.406	-42.596	23.707	0
20341.967	-44.252	25.462	-42.564	23.759	0
20342.092	-44.216	25.519	-42.531	23.812	0
20342.217	-44.180	25.576	-42.498	23.865	0
20342.342	-44.145	25.632	-42.465	23.919	0
20342.467	-44.109	25.689	-42.432	23.973	0
20342.592	-44.074	25.746	-42.399	24.027	0
20342.717	-44.038	25.802	-42.365	24.081	0
20342.842	-44.002	25.859	-42.330	24.135	0
20342.967	-43.967	25.916	-42.295	24.188	0
20343.092	-43.931	25.972	-42.259	24.242	0
20343.217	-43.896	26.029	-42.223	24.295	0
20343.342	-43.860	26.086	-42.186	24.348	0
20343.467	-43.824	26.142	-42.151	24.401	0
20343.592	-43.789	26.199	-42.115	24.454	0
20343.717	-43.753	26.256	-42.080	24.507	0
20343.842	-43.717	26.312	-42.045	24.560	0
20343.967	-43.682	26.369	-42.011	24.613	0
20344.092	-43.646	26.426	-41.978	24.667	0
20344.217	-43.611	26.482	-41.946	24.722	0
20344.342	-43.575	26.539	-41.915	24.777	0
20344.467	-43.539	26.596	-41.885	24.834	0
20344.592	-43.504	26.653	-41.857	24.891	0
20344.717	-43.468	26.709	-41.830	24.949	0
20344.842	-43.433	26.766	-41.805	25.009	0
20344.967	-43.397	26.823	-41.781	25.069	0
20345.092	-43.361	26.879	-41.760	25.129	0
20345.217	-43.326	26.936	-41.740	25.191	0
20345.342	-43.290	26.993	-41.720	25.252	0
20345.467	-43.255	27.049	-41.701	25.313	0
20345.592	-43.219	27.106	-41.682	25.374	0
20345.717	-43.183	27.163	-41.663	25.434	0
20345.842	-43.148	27.219	-41.643	25.494	0
20345.967	-43.112	27.276	-41.621	25.553	0
20346.092	-43.076	27.333	-41.597	25.611	0
20346.217	-43.041	27.389	-41.570	25.668	0
20346.342	-43.005	27.446	-41.542	25.724	0
20346.467	-42.970	27.503	-41.510	25.778	0
20346.592	-42.934	27.559	-41.477	25.832	0
20346.717	-42.898	27.616	-41.441	25.885	0
20346.842	-42.863	27.673	-41.403	25.936	0
20346.967	-42.827	27.729	-41.363	25.987	0
20347.092	-42.792	27.786	-41.321	26.037	0
20347.217	-42.756	27.843	-41.278	26.087	0
20347.342	-42.720	27.900	-41.234	26.136	0
20347.467	-42.685	27.956	-41.189	26.185	0
20347.592	-42.649	28.013	-41.144	26.234	0
20347.717	-42.613	28.070	-41.097	26.282	0
20347.842	-42.578	28.126	-41.050	26.331	0
20347.967	-42.542	28.183	-41.003	26.380	0
20348.092	-42.507	28.240	-40.955	26.430	0
20348.217	-42.471	28.296	-40.907	26.479	0
20348.342	-42.435	28.353	-40.859	26.529	0
20348.467	-42.400	28.410	-40.811	26.579	0
20348.592	-42.364	28.466	-40.763	26.629	0
20348.717	-42.329	28.523	-40.715	26.680	0
20348.842	-42.293	28.580	-40.667	26.731	0
20348.967	-42.257	28.636	-40.620	26.782	0
20349.092	-42.222	28.693	-40.573	26.834	0
20349.217	-42.186	28.750	-40.527	26.886	0
20349.342	-42.151	28.806	-40.481	26.939	0
20349.467	-42.115	28.863	-40.436	26.993	0
20349.592	-42.079	28.920	-40.392	27.047	0
20349.717	-42.044	28.976	-40.348	27.102	0
20349.842	-42.008	29.033	-40.305	27.157	0
20349.967	-41.972	29.090	-40.263	27.213	0
20350.092	-41.937	29.147	-40.221	27.269	0
20350.217	-41.901	29.203	-40.179	27.326	0
20350.342	-41.866	29.260	-40.138	27.383	0
20350.467	-41.830	29.317	-40.097	27.441	0
20350.592	-41.794	29.373	-40.056	27.499	0
20350.717	-41.759	29.430	-40.014	27.557	0
20350.842	-41.723	29.487	-39.972	27.614	0
20350.967	-41.688	29.543	-39.930	27.672	0
20351.092	-41.652	29.600	-39.887	27.729	0
20351.217	-41.616	29.657	-39.842	27.785	0
20351.342	-41.581	29.713	-39.797	27.841	0
20351.467	-41.545	29.770	-39.750	27.897	0
20351.592	-41.509	29.827	-39.702	27.952	0
20351.717	-41.486	29.896	-39.666	28.020	0
20351.842	-41.463	29.963	-39.631	28.084	0
20351.967	-41.441	30.029	-39.596	28.147	0
20352.092	-41.420	30.095	-39.561	28.209	0
20352.217	-41.396	30.164	-39.521	28.274	0
20352.342	-41.372	30.233	-39.483	28.339	0
20352.467	-41.348	30.302	-39.445	28.403	0
20352.592	-41.325	30.371	-39.408	28.467	0
20352.717	-41.300	30.440	-39.371	28.531	0
20352.842	-41.265	30.500	-39.324	28.587	0
20352.967	-41.227	30.558	-39.275	28.643	0
20353.092	-41.188	30.615	-39.226	28.698	0
20353.217	-41.145	30.670	-39.174	28.751	0
20353.342	-41.096	30.719	-39.116	28.800	0
20353.467	-41.043	30.763	-39.056	28.845	0
20353.592	-40.988	30.800	-38.992	28.884	0
20353.717	-40.965	30.841	-38.966	28.927	0
20353.842	-41.025	30.927	-39.036	29.016	0
20353.967	-41.028	30.985	-39.041	29.078	0
20354.092	-41.018	31.037	-39.031	29.132	0
20354.217	-40.984	31.092	-38.992	29.190	0
20354.342	-40.962	31.154	-38.967	29.255	0
20354.467	-40.958	31.221	-38.962	29.325	0
20354.592	-40.968	31.287	-38.973	29.396	0
20354.717	-41.061	31.367	-39.078	29.479	0
20354.842	-40.995	31.426	-39.001	29.542	0
20354.967	-40.937	31.482	-38.931	29.602	0
20355.092	-40.883	31.537	-38.868	29.661	0
20355.217	-40.832	31.591	-38.807	29.721	0
20355.342	-40.791	31.646	-38.757	29.780	0
20355.467	-40.756	31.699	-38.714	29.839	0
