Tag:	57121
Reference:	tu21_121_05
Coast Distance (km): 	30.0
Estimation Time Delay (days): 	0.0

CNES Day	Lon	Lat	LonCor	LatCor	Delay
20516.136	9.384	0.443	9.384	0.443	0
20516.261	9.325	0.393	8.355	-0.578	0
20516.386	9.265	0.343	8.296	-0.628	0
20516.511	9.206	0.293	8.237	-0.678	0
20516.636	9.146	0.243	8.177	-0.728	0
20516.761	9.087	0.193	8.118	-0.779	0
20516.886	9.027	0.143	8.058	-0.829	0
20517.011	8.968	0.093	8.003	-0.880	0
20517.136	8.909	0.043	7.946	-0.932	0
20517.261	8.849	-0.007	7.890	-0.984	0
20517.386	8.790	-0.057	7.832	-1.035	0
20517.511	8.730	-0.107	7.775	-1.087	0
20517.636	8.671	-0.158	7.717	-1.138	0
20517.761	8.560	-0.182	7.607	-1.164	0
20517.886	8.469	-0.215	7.517	-1.198	0
20518.011	8.407	-0.262	7.455	-1.246	0
20518.136	8.322	-0.305	7.371	-1.289	0
20518.261	8.250	-0.344	7.298	-1.328	0
20518.386	8.212	-0.384	7.259	-1.369	0
20518.511	8.175	-0.426	7.221	-1.411	0
20518.636	8.141	-0.470	7.185	-1.455	0
20518.761	8.111	-0.516	7.153	-1.501	0
20518.886	8.112	-0.584	7.152	-1.569	0
20519.011	8.128	-0.662	7.165	-1.647	0
20519.136	8.025	-0.661	7.059	-1.646	0
20519.261	7.921	-0.661	6.953	-1.645	0
20519.386	7.836	-0.672	6.864	-1.657	0
20519.511	7.765	-0.693	6.789	-1.677	0
20519.636	7.679	-0.704	6.698	-1.688	0
20519.761	7.591	-0.714	6.605	-1.699	0
20519.886	7.500	-0.722	6.508	-1.709	0
20520.011	7.424	-0.739	6.426	-1.728	0
20520.136	7.376	-0.767	6.371	-1.759	0
20520.261	7.327	-0.796	6.315	-1.790	0
20520.386	7.320	-0.837	6.301	-1.836	0
20520.511	7.313	-0.875	6.287	-1.877	0
20520.636	7.307	-0.913	6.274	-1.920	0
20520.761	7.300	-0.952	6.260	-1.962	0
20520.886	7.288	-0.989	6.241	-2.002	0
20521.011	7.278	-1.028	6.224	-2.042	0
20521.136	7.282	-1.074	6.220	-2.090	0
20521.261	7.265	-1.107	6.197	-2.124	0
20521.386	7.231	-1.132	6.156	-2.149	0
20521.511	7.208	-1.133	6.125	-2.150	0
20521.636	7.186	-1.130	6.096	-2.146	0
20521.761	7.165	-1.126	6.068	-2.141	0
20521.886	7.144	-1.120	6.040	-2.134	0
20522.011	7.124	-1.112	6.012	-2.126	0
20522.136	7.105	-1.102	5.985	-2.115	0
20522.261	7.090	-1.081	5.962	-2.094	0
20522.386	7.068	-1.087	5.930	-2.100	0
20522.511	7.045	-1.093	5.899	-2.107	0
20522.636	7.022	-1.099	5.867	-2.113	0
20522.761	6.999	-1.106	5.835	-2.119	0
20522.886	6.977	-1.112	5.803	-2.126	0
20523.011	6.954	-1.118	5.770	-2.133	0
20523.136	6.931	-1.124	5.737	-2.140	0
20523.261	6.909	-1.130	5.703	-2.147	0
20523.386	6.886	-1.136	5.669	-2.155	0
20523.511	6.863	-1.142	5.635	-2.162	0
20523.636	6.840	-1.148	5.601	-2.170	0
20523.761	6.818	-1.154	5.566	-2.178	0
20523.886	6.795	-1.161	5.531	-2.186	0
20524.011	6.772	-1.167	5.496	-2.195	0
20524.136	6.750	-1.173	5.460	-2.203	0
20524.261	6.727	-1.179	5.424	-2.212	0
20524.386	6.704	-1.185	5.388	-2.222	0
20524.511	6.638	-1.214	5.308	-2.254	0
20524.636	6.574	-1.243	5.230	-2.286	0
20524.761	6.511	-1.271	5.152	-2.318	0
20524.886	6.450	-1.300	5.075	-2.350	0
20525.011	6.392	-1.329	5.000	-2.381	0
20525.136	6.360	-1.332	4.952	-2.387	0
20525.261	6.328	-1.334	4.904	-2.392	0
20525.386	6.292	-1.336	4.851	-2.397	0
20525.511	6.258	-1.339	4.801	-2.403	0
20525.636	6.184	-1.381	4.711	-2.447	0
20525.761	6.114	-1.422	4.624	-2.491	0
20525.886	6.082	-1.438	4.576	-2.511	0
20526.011	6.046	-1.435	4.521	-2.511	0
20526.136	5.986	-1.452	4.443	-2.531	0
20526.261	5.927	-1.468	4.364	-2.551	0
20526.386	5.839	-1.538	4.256	-2.625	0
20526.511	5.784	-1.583	4.181	-2.674	0
20526.636	5.743	-1.617	4.119	-2.712	0
20526.761	5.709	-1.641	4.066	-2.739	0
20526.886	5.678	-1.662	4.014	-2.764	0
20527.011	5.649	-1.681	3.965	-2.787	0
20527.136	5.623	-1.696	3.920	-2.806	0
20527.261	5.602	-1.721	3.879	-2.834	0
20527.386	5.578	-1.759	3.833	-2.876	0
20527.511	5.559	-1.790	3.792	-2.909	0
20527.636	5.534	-1.826	3.744	-2.948	0
20527.761	5.500	-1.872	3.689	-2.997	0
20527.886	5.457	-1.920	3.624	-3.049	0
20528.011	5.403	-1.942	3.547	-3.075	0
20528.136	5.352	-1.974	3.475	-3.110	0
20528.261	5.303	-2.009	3.404	-3.149	0
20528.386	5.232	-2.035	3.311	-3.179	0
20528.511	5.171	-2.070	3.229	-3.218	0
20528.636	5.126	-2.112	3.162	-3.264	0
20528.761	5.057	-2.119	3.071	-3.275	0
20528.886	4.990	-2.128	2.983	-3.288	0
20529.011	4.923	-2.139	2.895	-3.301	0
20529.136	4.855	-2.147	2.806	-3.312	0
20529.261	4.789	-2.158	2.718	-3.326	0
20529.386	4.733	-2.183	2.641	-3.354	0
20529.511	4.679	-2.209	2.566	-3.381	0
20529.636	4.626	-2.234	2.492	-3.409	0
20529.761	4.576	-2.261	2.421	-3.438	0
20529.886	4.519	-2.292	2.343	-3.473	0
20530.011	4.462	-2.324	2.265	-3.509	0
20530.136	4.405	-2.355	2.186	-3.545	0
20530.261	4.347	-2.387	2.108	-3.581	0
20530.386	4.290	-2.419	2.030	-3.618	0
20530.511	4.233	-2.450	1.952	-3.656	0
20530.636	4.175	-2.482	1.874	-3.695	0
20530.761	4.118	-2.513	1.796	-3.732	0
20530.886	4.061	-2.545	1.719	-3.769	0
20531.011	4.004	-2.576	1.643	-3.806	0
20531.136	3.946	-2.608	1.569	-3.841	0
20531.261	3.889	-2.639	1.495	-3.876	0
20531.386	3.832	-2.671	1.422	-3.910	0
20531.511	3.774	-2.703	1.350	-3.943	0
20531.636	3.717	-2.734	1.279	-3.976	0
20531.761	3.660	-2.766	1.208	-4.008	0
20531.886	3.603	-2.797	1.136	-4.040	0
20532.011	3.545	-2.829	1.064	-4.072	0
20532.136	3.488	-2.860	0.990	-4.104	0
20532.261	3.431	-2.892	0.916	-4.135	0
20532.386	3.373	-2.923	0.840	-4.167	0
20532.511	3.316	-2.955	0.764	-4.198	0
20532.636	3.313	-2.985	0.742	-4.227	0
20532.761	3.311	-3.015	0.721	-4.257	0
20532.886	3.308	-3.045	0.702	-4.287	0
20533.011	3.305	-3.075	0.683	-4.317	0
20533.136	3.291	-3.108	0.654	-4.351	0
20533.261	3.274	-3.142	0.624	-4.385	0
20533.386	3.272	-3.172	0.609	-4.416	0
20533.511	3.270	-3.202	0.595	-4.448	0
20533.636	3.228	-3.242	0.543	-4.490	0
20533.761	3.191	-3.284	0.495	-4.534	0
20533.886	3.160	-3.328	0.453	-4.579	0
20534.011	3.129	-3.372	0.411	-4.624	0
20534.136	3.087	-3.417	0.358	-4.670	0
20534.261	3.037	-3.462	0.296	-4.715	0
20534.386	2.992	-3.506	0.240	-4.759	0
20534.511	2.945	-3.552	0.181	-4.804	0
20534.636	2.888	-3.601	0.110	-4.851	0
20534.761	2.827	-3.649	0.037	-4.898	0
20534.886	2.818	-3.679	0.014	-4.926	0
20535.011	2.797	-3.715	-0.022	-4.959	0
20535.136	2.774	-3.749	-0.059	-4.991	0
20535.261	2.764	-3.775	-0.084	-5.015	0
20535.386	2.759	-3.800	-0.104	-5.037	0
20535.511	2.727	-3.851	-0.151	-5.086	0
20535.636	2.699	-3.893	-0.195	-5.125	0
20535.761	2.680	-3.932	-0.230	-5.161	0
20535.886	2.677	-3.972	-0.248	-5.198	0
20536.011	2.674	-4.012	-0.267	-5.236	0
20536.136	2.654	-4.060	-0.304	-5.283	0
20536.261	2.596	-4.127	-0.377	-5.348	0
20536.386	2.539	-4.193	-0.451	-5.412	0
20536.511	2.467	-4.166	-0.540	-5.384	0
20536.636	2.403	-4.194	-0.619	-5.410	0
20536.761	2.342	-4.239	-0.695	-5.454	0
20536.886	2.298	-4.265	-0.756	-5.477	0
20537.011	2.287	-4.307	-0.784	-5.518	0
20537.136	2.261	-4.342	-0.828	-5.550	0
20537.261	2.221	-4.370	-0.886	-5.576	0
20537.386	2.040	-4.318	-1.087	-5.521	0
20537.511	2.114	-4.411	-1.030	-5.611	0
20537.636	2.182	-4.504	-0.981	-5.702	0
20537.761	2.245	-4.598	-0.937	-5.793	0
20537.886	2.286	-4.683	-0.916	-5.876	0
20538.011	2.275	-4.749	-0.947	-5.940	0
20538.136	2.272	-4.818	-0.970	-6.007	0
20538.261	2.275	-4.885	-0.987	-6.071	0
20538.386	2.294	-4.960	-0.987	-6.141	0
20538.511	2.263	-5.015	-1.037	-6.191	0
20538.636	2.233	-5.066	-1.086	-6.236	0
20538.761	2.202	-5.115	-1.135	-6.278	0
20538.886	2.170	-5.163	-1.186	-6.317	0
20539.011	2.136	-5.195	-1.238	-6.341	0
20539.136	2.104	-5.227	-1.287	-6.364	0
20539.261	2.073	-5.257	-1.335	-6.386	0
20539.386	2.052	-5.282	-1.373	-6.401	0
20539.511	2.041	-5.304	-1.400	-6.412	0
20539.636	2.032	-5.326	-1.426	-6.424	0
20539.761	2.022	-5.348	-1.452	-6.435	0
20539.886	2.015	-5.370	-1.476	-6.446	0
20540.011	2.012	-5.389	-1.495	-6.455	0
20540.136	2.021	-5.392	-1.502	-6.447	0
20540.261	2.031	-5.393	-1.508	-6.437	0
20540.386	2.045	-5.409	-1.509	-6.443	0
20540.511	2.070	-5.452	-1.501	-6.475	0
20540.636	2.097	-5.484	-1.490	-6.498	0
20540.761	2.121	-5.510	-1.481	-6.516	0
20540.886	2.143	-5.532	-1.476	-6.528	0
20541.011	2.172	-5.571	-1.462	-6.560	0
20541.136	2.145	-5.591	-1.506	-6.572	0
20541.261	2.119	-5.610	-1.548	-6.582	0
20541.386	2.101	-5.630	-1.581	-6.592	0
20541.511	2.038	-5.647	-1.661	-6.600	0
20541.636	1.970	-5.663	-1.744	-6.605	0
20541.761	1.901	-5.677	-1.828	-6.608	0
20541.886	1.832	-5.691	-1.911	-6.609	0
20542.011	1.787	-5.708	-1.969	-6.613	0
20542.136	1.725	-5.711	-2.043	-6.604	0
20542.261	1.651	-5.696	-2.130	-6.576	0
20542.386	1.581	-5.684	-2.211	-6.550	0
20542.511	1.554	-5.692	-2.248	-6.545	0
20542.636	1.528	-5.699	-2.284	-6.540	0
20542.761	1.504	-5.705	-2.318	-6.532	0
20542.886	1.486	-5.706	-2.346	-6.521	0
20543.011	1.468	-5.707	-2.373	-6.510	0
20543.136	1.450	-5.709	-2.400	-6.500	0
20543.261	1.432	-5.710	-2.427	-6.490	0
20543.386	1.414	-5.711	-2.454	-6.480	0
20543.511	1.396	-5.713	-2.480	-6.470	0
20543.636	1.378	-5.714	-2.507	-6.461	0
20543.761	1.360	-5.715	-2.533	-6.451	0
20543.886	1.342	-5.716	-2.559	-6.442	0
20544.011	1.324	-5.718	-2.585	-6.433	0
20544.136	1.306	-5.719	-2.611	-6.424	0
20544.261	1.288	-5.720	-2.637	-6.415	0
20544.386	1.270	-5.722	-2.663	-6.406	0
20544.511	1.252	-5.723	-2.689	-6.397	0
20544.636	1.234	-5.724	-2.715	-6.389	0
20544.761	1.216	-5.725	-2.741	-6.381	0
20544.886	1.198	-5.727	-2.766	-6.373	0
20545.011	1.180	-5.728	-2.791	-6.366	0
20545.136	1.162	-5.729	-2.816	-6.359	0
20545.261	1.144	-5.731	-2.840	-6.352	0
20545.386	1.125	-5.732	-2.865	-6.346	0
20545.511	1.107	-5.733	-2.888	-6.340	0
20545.636	1.089	-5.734	-2.912	-6.334	0
20545.761	1.071	-5.736	-2.935	-6.328	0
20545.886	1.053	-5.737	-2.959	-6.322	0
20546.011	1.035	-5.738	-2.983	-6.316	0
20546.136	1.017	-5.740	-3.007	-6.309	0
20546.261	0.999	-5.741	-3.031	-6.302	0
20546.386	0.981	-5.742	-3.054	-6.295	0
20546.511	0.963	-5.743	-3.079	-6.288	0
20546.636	0.945	-5.745	-3.103	-6.281	0
20546.761	0.927	-5.746	-3.127	-6.273	0
20546.886	0.909	-5.747	-3.151	-6.265	0
20547.011	0.891	-5.749	-3.175	-6.257	0
20547.136	0.873	-5.750	-3.199	-6.248	0
20547.261	0.855	-5.751	-3.224	-6.238	0
20547.386	0.837	-5.752	-3.248	-6.228	0
20547.511	0.819	-5.754	-3.272	-6.218	0
20547.636	0.801	-5.755	-3.296	-6.207	0
20547.761	0.783	-5.756	-3.320	-6.196	0
20547.886	0.765	-5.758	-3.345	-6.184	0
20548.011	0.747	-5.759	-3.370	-6.172	0
20548.136	0.729	-5.760	-3.395	-6.160	0
20548.261	0.711	-5.761	-3.420	-6.147	0
20548.386	0.693	-5.763	-3.446	-6.134	0
20548.511	0.675	-5.764	-3.472	-6.121	0
20548.636	0.657	-5.765	-3.498	-6.107	0
20548.761	0.639	-5.767	-3.524	-6.093	0
20548.886	0.621	-5.768	-3.550	-6.080	0
20549.011	0.603	-5.769	-3.576	-6.066	0
20549.136	0.585	-5.770	-3.602	-6.052	0
20549.261	0.567	-5.772	-3.628	-6.039	0
20549.386	0.549	-5.773	-3.654	-6.025	0
20549.511	0.531	-5.774	-3.680	-6.011	0
20549.636	0.513	-5.776	-3.706	-5.998	0
20549.761	0.495	-5.777	-3.732	-5.984	0
20549.886	0.477	-5.778	-3.758	-5.970	0
20550.011	0.459	-5.779	-3.784	-5.956	0
20550.136	0.441	-5.781	-3.809	-5.942	0
20550.261	0.423	-5.782	-3.835	-5.928	0
20550.386	0.405	-5.783	-3.860	-5.914	0
20550.511	0.387	-5.785	-3.885	-5.899	0
20550.636	0.369	-5.786	-3.910	-5.885	0
20550.761	0.351	-5.787	-3.935	-5.870	0
20550.886	0.333	-5.788	-3.958	-5.856	0
20551.011	0.315	-5.790	-3.982	-5.842	0
20551.136	0.297	-5.791	-4.005	-5.829	0
20551.261	0.288	-5.796	-4.019	-5.819	0
20551.386	0.279	-5.800	-4.032	-5.810	0
20551.511	0.270	-5.805	-4.045	-5.801	0
20551.636	0.261	-5.809	-4.057	-5.792	0
20551.761	0.252	-5.814	-4.070	-5.784	0
20551.886	0.243	-5.818	-4.083	-5.775	0
20552.011	0.234	-5.822	-4.096	-5.767	0
20552.136	0.227	-5.817	-4.108	-5.748	0
20552.261	0.219	-5.811	-4.120	-5.730	0
20552.386	0.212	-5.805	-4.133	-5.711	0
20552.511	0.204	-5.799	-4.146	-5.693	0
20552.636	0.197	-5.793	-4.160	-5.674	0
20552.761	0.189	-5.787	-4.174	-5.655	0
20552.886	0.182	-5.781	-4.188	-5.636	0
20553.011	0.174	-5.775	-4.202	-5.618	0
20553.136	0.167	-5.770	-4.217	-5.599	0
20553.261	0.159	-5.764	-4.231	-5.580	0
20553.386	0.152	-5.758	-4.246	-5.561	0
20553.511	0.144	-5.752	-4.261	-5.542	0
20553.636	0.137	-5.746	-4.277	-5.522	0
20553.761	0.129	-5.740	-4.292	-5.503	0
20553.886	0.122	-5.734	-4.308	-5.484	0
20554.011	0.114	-5.728	-4.324	-5.465	0
20554.136	0.107	-5.722	-4.341	-5.446	0
20554.261	0.099	-5.717	-4.357	-5.427	0
20554.386	0.092	-5.711	-4.374	-5.408	0
20554.511	0.085	-5.705	-4.390	-5.389	0
20554.636	0.077	-5.699	-4.407	-5.370	0
20554.761	0.071	-5.698	-4.423	-5.356	0
20554.886	0.064	-5.697	-4.439	-5.342	0
20555.011	0.058	-5.697	-4.455	-5.328	0
20555.136	0.051	-5.696	-4.471	-5.314	0
20555.261	0.045	-5.695	-4.487	-5.300	0
20555.386	0.039	-5.694	-4.502	-5.286	0
20555.511	0.032	-5.693	-4.518	-5.272	0
20555.636	0.026	-5.693	-4.533	-5.257	0
20555.761	0.019	-5.692	-4.549	-5.243	0
20555.886	0.013	-5.691	-4.565	-5.229	0
20556.011	0.006	-5.690	-4.580	-5.215	0
20556.136	0.000	-5.689	-4.596	-5.202	0
20556.261	-0.006	-5.689	-4.612	-5.189	0
20556.386	-0.013	-5.688	-4.628	-5.176	0
20556.511	-0.019	-5.687	-4.644	-5.162	0
20556.636	-0.026	-5.686	-4.660	-5.150	0
20556.761	-0.032	-5.686	-4.675	-5.137	0
20556.886	-0.038	-5.685	-4.690	-5.124	0
20557.011	-0.045	-5.684	-4.706	-5.111	0
20557.136	-0.051	-5.683	-4.721	-5.099	0
20557.261	-0.058	-5.682	-4.736	-5.086	0
20557.386	-0.064	-5.682	-4.751	-5.074	0
20557.511	-0.070	-5.681	-4.765	-5.061	0
20557.636	-0.077	-5.680	-4.780	-5.049	0
20557.761	-0.083	-5.679	-4.794	-5.037	0
20557.886	-0.090	-5.678	-4.808	-5.025	0
20558.011	-0.096	-5.678	-4.822	-5.013	0
20558.136	-0.103	-5.677	-4.836	-5.001	0
20558.261	-0.109	-5.676	-4.850	-4.990	0
20558.386	-0.115	-5.675	-4.864	-4.978	0
20558.511	-0.122	-5.674	-4.877	-4.966	0
20558.636	-0.128	-5.674	-4.890	-4.955	0
20558.761	-0.135	-5.673	-4.903	-4.943	0
20558.886	-0.141	-5.672	-4.916	-4.932	0
20559.011	-0.147	-5.671	-4.929	-4.921	0
20559.136	-0.154	-5.671	-4.942	-4.910	0
20559.261	-0.160	-5.670	-4.954	-4.899	0
20559.386	-0.167	-5.669	-4.966	-4.888	0
20559.511	-0.173	-5.668	-4.979	-4.877	0
20559.636	-0.179	-5.667	-4.991	-4.866	0
20559.761	-0.186	-5.667	-5.002	-4.856	0
20559.886	-0.192	-5.666	-5.014	-4.845	0
20560.011	-0.199	-5.665	-5.026	-4.834	0
20560.136	-0.205	-5.664	-5.037	-4.824	0
20560.261	-0.212	-5.663	-5.048	-4.814	0
20560.386	-0.218	-5.663	-5.059	-4.804	0
20560.511	-0.224	-5.662	-5.070	-4.793	0
20560.636	-0.231	-5.661	-5.081	-4.783	0
20560.761	-0.237	-5.660	-5.091	-4.773	0
20560.886	-0.244	-5.659	-5.102	-4.764	0
20561.011	-0.250	-5.659	-5.112	-4.754	0
20561.136	-0.256	-5.658	-5.122	-4.744	0
20561.261	-0.263	-5.657	-5.132	-4.735	0
20561.386	-0.269	-5.656	-5.142	-4.725	0
20561.511	-0.276	-5.656	-5.152	-4.716	0
20561.636	-0.282	-5.655	-5.162	-4.706	0
20561.761	-0.288	-5.654	-5.171	-4.697	0
20561.886	-0.295	-5.653	-5.181	-4.688	0
20562.011	-0.301	-5.652	-5.190	-4.679	0
20562.136	-0.308	-5.652	-5.199	-4.670	0
20562.261	-0.314	-5.651	-5.208	-4.661	0
20562.386	-0.321	-5.650	-5.217	-4.653	0
20562.511	-0.327	-5.649	-5.225	-4.644	0
20562.636	-0.333	-5.648	-5.234	-4.635	0
20562.761	-0.340	-5.648	-5.242	-4.627	0
20562.886	-0.239	-5.639	-5.149	-4.613	0
20563.011	-0.139	-5.631	-5.056	-4.598	0
20563.136	-0.158	-5.627	-5.082	-4.589	0
20563.261	-0.176	-5.624	-5.108	-4.580	0
20563.386	-0.195	-5.620	-5.133	-4.571	0
20563.511	-0.213	-5.617	-5.159	-4.562	0
20563.636	-0.232	-5.613	-5.184	-4.553	0
20563.761	-0.250	-5.610	-5.209	-4.544	0
20563.886	-0.269	-5.606	-5.234	-4.535	0
20564.011	-0.287	-5.603	-5.259	-4.527	0
20564.136	-0.306	-5.599	-5.284	-4.518	0
20564.261	-0.325	-5.596	-5.309	-4.509	0
20564.386	-0.343	-5.593	-5.333	-4.501	0
20564.511	-0.362	-5.589	-5.355	-4.493	0
20564.636	-0.380	-5.586	-5.376	-4.486	0
20564.761	-0.399	-5.582	-5.397	-4.479	0
20564.886	-0.417	-5.579	-5.419	-4.472	0
20565.011	-0.436	-5.575	-5.441	-4.465	0
20565.136	-0.454	-5.572	-5.463	-4.458	0
20565.261	-0.473	-5.568	-5.486	-4.452	0
20565.386	-0.491	-5.565	-5.509	-4.445	0
20565.511	-0.510	-5.561	-5.532	-4.439	0
20565.636	-0.529	-5.558	-5.556	-4.433	0
20565.761	-0.547	-5.554	-5.579	-4.427	0
20565.886	-0.566	-5.551	-5.603	-4.421	0
20566.011	-0.584	-5.547	-5.626	-4.416	0
20566.136	-0.603	-5.544	-5.649	-4.410	0
20566.261	-0.621	-5.540	-5.672	-4.405	0
20566.386	-0.640	-5.537	-5.695	-4.401	0
20566.511	-0.658	-5.533	-5.719	-4.396	0
20566.636	-0.677	-5.530	-5.742	-4.392	0
20566.761	-0.696	-5.526	-5.765	-4.389	0
20566.886	-0.714	-5.523	-5.789	-4.386	0
20567.011	-0.733	-5.519	-5.812	-4.384	0
20567.136	-0.751	-5.516	-5.837	-4.383	0
20567.261	-0.770	-5.512	-5.861	-4.382	0
20567.386	-0.788	-5.509	-5.886	-4.383	0
20567.511	-0.807	-5.505	-5.911	-4.383	0
20567.636	-0.825	-5.502	-5.936	-4.385	0
20567.761	-0.844	-5.498	-5.962	-4.386	0
20567.886	-0.862	-5.495	-5.988	-4.388	0
20568.011	-0.881	-5.491	-6.013	-4.391	0
20568.136	-0.900	-5.488	-6.039	-4.393	0
20568.261	-0.918	-5.484	-6.065	-4.396	0
20568.386	-0.937	-5.481	-6.092	-4.400	0
20568.511	-0.955	-5.477	-6.118	-4.403	0
20568.636	-0.974	-5.474	-6.145	-4.407	0
20568.761	-0.992	-5.470	-6.172	-4.412	0
20568.886	-1.011	-5.467	-6.199	-4.416	0
20569.011	-1.029	-5.463	-6.227	-4.421	0
20569.136	-1.048	-5.460	-6.255	-4.426	0
20569.261	-1.066	-5.456	-6.284	-4.431	0
20569.386	-1.085	-5.453	-6.313	-4.436	0
20569.511	-1.104	-5.449	-6.343	-4.441	0
20569.636	-1.122	-5.446	-6.373	-4.445	0
20569.761	-1.141	-5.442	-6.403	-4.450	0
20569.886	-1.167	-5.430	-6.442	-4.446	0
20570.011	-1.190	-5.419	-6.477	-4.442	0
20570.136	-1.212	-5.398	-6.512	-4.428	0
20570.261	-1.234	-5.377	-6.547	-4.414	0
20570.386	-1.257	-5.355	-6.582	-4.400	0
20570.511	-1.279	-5.334	-6.617	-4.386	0
20570.636	-1.301	-5.313	-6.653	-4.372	0
20570.761	-1.323	-5.291	-6.688	-4.357	0
20570.886	-1.345	-5.270	-6.724	-4.343	0
20571.011	-1.368	-5.248	-6.761	-4.329	0
20571.136	-1.390	-5.227	-6.797	-4.315	0
20571.261	-1.412	-5.206	-6.834	-4.300	0
20571.386	-1.434	-5.184	-6.871	-4.286	0
20571.511	-1.457	-5.163	-6.908	-4.271	0
20571.636	-1.479	-5.141	-6.945	-4.256	0
20571.761	-1.501	-5.120	-6.983	-4.242	0
20571.886	-1.523	-5.099	-7.020	-4.227	0
20572.011	-1.546	-5.077	-7.058	-4.212	0
20572.136	-1.568	-5.056	-7.096	-4.197	0
20572.261	-1.590	-5.034	-7.133	-4.182	0
20572.386	-1.612	-5.013	-7.168	-4.167	0
20572.511	-1.635	-4.992	-7.203	-4.151	0
20572.636	-1.657	-4.970	-7.237	-4.136	0
20572.761	-1.679	-4.949	-7.271	-4.120	0
20572.886	-1.701	-4.927	-7.303	-4.103	0
20573.011	-1.723	-4.906	-7.335	-4.086	0
20573.136	-1.746	-4.885	-7.366	-4.069	0
20573.261	-1.799	-4.864	-7.429	-4.053	0
20573.386	-1.838	-4.848	-7.475	-4.040	0
20573.511	-1.878	-4.831	-7.522	-4.026	0
20573.636	-1.919	-4.814	-7.570	-4.012	0
20573.761	-1.960	-4.796	-7.617	-3.998	0
20573.886	-2.001	-4.779	-7.662	-3.983	0
20574.011	-2.042	-4.762	-7.707	-3.969	0
20574.136	-2.079	-4.746	-7.747	-3.956	0
20574.261	-2.116	-4.730	-7.787	-3.943	0
20574.386	-2.143	-4.713	-7.816	-3.929	0
20574.511	-2.170	-4.696	-7.845	-3.916	0
20574.636	-2.198	-4.680	-7.873	-3.902	0
20574.761	-2.225	-4.663	-7.901	-3.889	0
20574.886	-2.252	-4.647	-7.928	-3.876	0
20575.011	-2.279	-4.630	-7.955	-3.863	0
20575.136	-2.306	-4.614	-7.981	-3.850	0
20575.261	-2.333	-4.597	-8.007	-3.837	0
20575.386	-2.361	-4.580	-8.032	-3.824	0
20575.511	-2.388	-4.564	-8.057	-3.811	0
20575.636	-2.415	-4.547	-8.081	-3.799	0
20575.761	-2.442	-4.531	-8.104	-3.786	0
20575.886	-2.469	-4.514	-8.128	-3.773	0
20576.011	-2.497	-4.497	-8.151	-3.760	0
20576.136	-2.524	-4.481	-8.173	-3.746	0
20576.261	-2.551	-4.464	-8.196	-3.733	0
20576.386	-2.578	-4.448	-8.218	-3.719	0
20576.511	-2.605	-4.431	-8.239	-3.705	0
20576.636	-2.632	-4.415	-8.260	-3.691	0
20576.761	-2.660	-4.398	-8.281	-3.677	0
20576.886	-2.687	-4.381	-8.301	-3.664	0
20577.011	-2.714	-4.365	-8.320	-3.650	0
20577.136	-2.741	-4.348	-8.339	-3.637	0
20577.261	-2.768	-4.332	-8.357	-3.624	0
20577.386	-2.796	-4.315	-8.375	-3.611	0
20577.511	-2.823	-4.298	-8.392	-3.598	0
20577.636	-2.850	-4.282	-8.409	-3.585	0
20577.761	-2.877	-4.265	-8.424	-3.573	0
20577.886	-2.904	-4.249	-8.440	-3.560	0
20578.011	-2.931	-4.232	-8.455	-3.548	0
20578.136	-2.959	-4.216	-8.469	-3.536	0
20578.261	-2.987	-4.200	-8.483	-3.525	0
20578.386	-3.016	-4.188	-8.499	-3.516	0
20578.511	-3.045	-4.175	-8.514	-3.508	0
20578.636	-3.075	-4.162	-8.529	-3.500	0
20578.761	-3.104	-4.150	-8.543	-3.492	0
20578.886	-3.134	-4.137	-8.557	-3.483	0
20579.011	-3.163	-4.124	-8.571	-3.475	0
20579.136	-3.203	-4.097	-8.595	-3.452	0
20579.261	-3.244	-4.069	-8.619	-3.429	0
20579.386	-3.284	-4.041	-8.643	-3.406	0
20579.511	-3.324	-4.013	-8.666	-3.383	0
