Tag:	57950
Reference:	tu26_C_05
Coast Distance (km): 	30.0
Estimation Time Delay (days): 	0.0

CNES Day	Lon	Lat	LonCor	LatCor	Delay
20256.603	-81.707	9.018	-81.707	9.018	0
20256.728	-81.659	9.059	-82.638	8.088	0
20256.853	-81.611	9.100	-82.590	8.130	0
20256.978	-81.562	9.142	-82.541	8.171	0
20257.103	-81.514	9.183	-82.492	8.212	0
20257.228	-81.466	9.224	-82.444	8.253	0
20257.353	-81.418	9.265	-82.395	8.294	0
20257.478	-81.370	9.306	-82.346	8.335	0
20257.603	-81.321	9.347	-82.298	8.376	0
20257.728	-81.273	9.389	-82.257	8.428	0
20257.853	-81.225	9.430	-82.212	8.479	0
20257.978	-81.177	9.471	-82.163	8.531	0
20258.103	-81.128	9.512	-82.111	8.584	0
20258.228	-81.080	9.553	-82.055	8.639	0
20258.353	-81.032	9.594	-82.000	8.694	0
20258.478	-80.984	9.636	-81.952	8.750	0
20258.603	-80.896	9.694	-81.869	8.823	0
20258.728	-80.812	9.752	-81.796	8.893	0
20258.853	-80.733	9.809	-81.732	8.958	0
20258.978	-80.648	9.868	-81.666	9.021	0
20259.103	-80.565	9.927	-81.601	9.078	0
20259.228	-80.486	9.985	-81.534	9.125	0
20259.353	-80.433	10.051	-81.486	9.168	0
20259.478	-80.379	10.117	-81.433	9.201	0
20259.603	-80.317	10.181	-81.365	9.218	0
20259.728	-80.258	10.241	-81.299	9.225	0
20259.853	-80.204	10.302	-81.243	9.241	0
20259.978	-80.153	10.364	-81.196	9.263	0
20260.103	-80.119	10.427	-81.172	9.292	0
20260.228	-80.052	10.491	-81.119	9.328	0
20260.353	-79.981	10.557	-81.067	9.370	0
20260.478	-79.910	10.624	-81.016	9.414	0
20260.603	-79.858	10.698	-80.982	9.467	0
20260.728	-79.806	10.773	-80.943	9.520	0
20260.853	-79.747	10.849	-80.894	9.570	0
20260.978	-79.681	10.924	-80.833	9.617	0
20261.103	-79.609	11.003	-80.763	9.667	0
20261.228	-79.540	11.082	-80.695	9.719	0
20261.353	-79.474	11.159	-80.632	9.772	0
20261.478	-79.409	11.240	-80.569	9.832	0
20261.603	-79.343	11.321	-80.511	9.896	0
20261.728	-79.268	11.399	-80.445	9.959	0
20261.853	-79.192	11.476	-80.381	10.023	0
20261.978	-79.123	11.538	-80.327	10.073	0
20262.103	-79.053	11.592	-80.273	10.116	0
20262.228	-78.984	11.642	-80.221	10.158	0
20262.353	-78.916	11.692	-80.171	10.200	0
20262.478	-78.849	11.742	-80.123	10.242	0
20262.603	-78.782	11.791	-80.076	10.283	0
20262.728	-78.716	11.838	-80.030	10.324	0
20262.853	-78.658	11.912	-79.993	10.391	0
20262.978	-78.601	11.986	-79.953	10.458	0
20263.103	-78.543	12.061	-79.910	10.525	0
20263.228	-78.485	12.135	-79.866	10.590	0
20263.353	-78.427	12.209	-79.818	10.656	0
20263.478	-78.369	12.283	-79.768	10.720	0
20263.603	-78.312	12.357	-79.716	10.785	0
20263.728	-78.254	12.431	-79.662	10.849	0
20263.853	-78.196	12.505	-79.605	10.914	0
20263.978	-78.138	12.579	-79.545	10.979	0
20264.103	-78.080	12.653	-79.483	11.043	0
20264.228	-78.023	12.727	-79.417	11.108	0
20264.353	-77.965	12.801	-79.349	11.172	0
20264.478	-77.907	12.875	-79.277	11.236	0
20264.603	-77.849	12.949	-79.202	11.299	0
20264.728	-77.791	13.024	-79.123	11.362	0
20264.853	-77.733	13.098	-79.039	11.423	0
20264.978	-77.676	13.172	-78.952	11.483	0
20265.103	-77.618	13.246	-78.861	11.541	0
20265.228	-77.560	13.320	-78.767	11.599	0
20265.353	-77.502	13.394	-78.669	11.654	0
20265.478	-77.444	13.468	-78.567	11.709	0
20265.603	-77.478	13.504	-78.555	11.723	0
20265.728	-77.511	13.540	-78.544	11.736	0
20265.853	-77.544	13.576	-78.532	11.749	0
20265.978	-77.577	13.612	-78.520	11.760	0
20266.103	-77.613	13.645	-78.510	11.768	0
20266.228	-77.645	13.682	-78.497	11.779	0
20266.353	-77.677	13.720	-78.483	11.789	0
20266.478	-77.681	13.789	-78.441	11.830	0
20266.603	-77.677	13.868	-78.388	11.880	0
20266.728	-77.661	13.941	-78.326	11.924	0
20266.853	-77.641	14.012	-78.260	11.964	0
20266.978	-77.620	14.081	-78.195	12.005	0
20267.103	-77.597	14.150	-78.130	12.045	0
20267.228	-77.574	14.219	-78.066	12.086	0
20267.353	-77.550	14.286	-78.003	12.126	0
20267.478	-77.513	14.348	-77.929	12.160	0
20267.603	-77.471	14.411	-77.853	12.197	0
20267.728	-77.430	14.471	-77.779	12.232	0
20267.853	-77.390	14.529	-77.709	12.264	0
20267.978	-77.346	14.586	-77.635	12.296	0
20268.103	-77.303	14.644	-77.563	12.329	0
20268.228	-77.258	14.701	-77.492	12.363	0
20268.353	-77.213	14.759	-77.422	12.397	0
20268.478	-77.167	14.816	-77.353	12.431	0
20268.603	-77.123	14.874	-77.288	12.468	0
20268.728	-77.064	14.919	-77.210	12.493	0
20268.853	-76.996	14.958	-77.125	12.513	0
20268.978	-76.956	15.018	-77.070	12.557	0
20269.103	-76.917	15.079	-77.018	12.601	0
20269.228	-76.870	15.133	-76.960	12.640	0
20269.353	-76.821	15.187	-76.902	12.679	0
20269.478	-76.772	15.239	-76.845	12.717	0
20269.603	-76.717	15.295	-76.783	12.759	0
20269.728	-76.659	15.350	-76.719	12.800	0
20269.853	-76.623	15.406	-76.679	12.840	0
20269.978	-76.584	15.462	-76.635	12.881	0
20270.103	-76.521	15.521	-76.568	12.924	0
20270.228	-76.459	15.579	-76.501	12.967	0
20270.353	-76.396	15.638	-76.435	13.011	0
20270.478	-76.315	15.679	-76.351	13.036	0
20270.603	-76.234	15.719	-76.267	13.061	0
20270.728	-76.157	15.762	-76.188	13.093	0
20270.853	-76.081	15.808	-76.111	13.128	0
20270.978	-76.005	15.853	-76.035	13.165	0
20271.103	-75.927	15.890	-75.959	13.196	0
20271.228	-75.849	15.927	-75.883	13.229	0
20271.353	-75.770	15.963	-75.807	13.265	0
20271.478	-75.688	16.000	-75.728	13.303	0
20271.603	-75.606	16.036	-75.650	13.342	0
20271.728	-75.539	16.062	-75.588	13.375	0
20271.853	-75.471	16.081	-75.526	13.404	0
20271.978	-75.404	16.098	-75.463	13.433	0
20272.103	-75.336	16.114	-75.399	13.464	0
20272.228	-75.269	16.128	-75.335	13.497	0
20272.353	-75.201	16.141	-75.270	13.531	0
20272.478	-75.133	16.142	-75.205	13.557	0
20272.603	-75.083	16.125	-75.156	13.568	0
20272.728	-75.025	16.113	-75.099	13.587	0
20272.853	-74.966	16.101	-75.040	13.610	0
20272.978	-74.906	16.091	-74.978	13.637	0
20273.103	-74.850	16.078	-74.921	13.663	0
20273.228	-74.797	16.062	-74.865	13.690	0
20273.353	-74.764	16.058	-74.829	13.729	0
20273.478	-74.740	16.059	-74.802	13.775	0
20273.603	-74.692	16.046	-74.749	13.808	0
20273.728	-74.664	16.044	-74.717	13.855	0
20273.853	-74.651	16.051	-74.699	13.911	0
20273.978	-74.638	16.058	-74.682	13.966	0
20274.103	-74.624	16.065	-74.664	14.021	0
20274.228	-74.560	16.075	-74.594	14.080	0
20274.353	-74.517	16.084	-74.544	14.135	0
20274.478	-74.510	16.090	-74.531	14.187	0
20274.603	-74.441	16.101	-74.455	14.242	0
20274.728	-74.372	16.112	-74.377	14.296	0
20274.853	-74.303	16.122	-74.298	14.347	0
20274.978	-74.235	16.133	-74.218	14.396	0
20275.103	-74.166	16.144	-74.137	14.440	0
20275.228	-74.098	16.154	-74.055	14.478	0
20275.353	-74.036	16.164	-73.976	14.510	0
20275.478	-74.010	16.169	-73.934	14.533	0
20275.603	-73.984	16.175	-73.890	14.555	0
20275.728	-73.958	16.181	-73.849	14.574	0
20275.853	-73.932	16.186	-73.811	14.591	0
20275.978	-73.957	16.185	-73.830	14.600	0
20276.103	-73.924	16.193	-73.792	14.618	0
20276.228	-73.899	16.199	-73.767	14.633	0
20276.353	-73.902	16.161	-73.774	14.601	0
20276.478	-73.883	16.165	-73.763	14.611	0
20276.603	-73.863	16.170	-73.756	14.621	0
20276.728	-73.843	16.174	-73.745	14.625	0
20276.853	-73.824	16.179	-73.731	14.625	0
20276.978	-73.762	16.297	-73.669	14.734	0
20277.103	-73.700	16.418	-73.597	14.838	0
20277.228	-73.673	16.489	-73.551	14.884	0
20277.353	-73.645	16.560	-73.499	14.928	0
20277.478	-73.624	16.620	-73.448	14.957	0
20277.603	-73.597	16.689	-73.386	14.997	0
20277.728	-73.532	16.746	-73.282	15.024	0
20277.853	-73.460	16.808	-73.174	15.059	0
20277.978	-73.414	16.877	-73.093	15.100	0
20278.103	-73.383	16.941	-73.028	15.140	0
20278.228	-73.359	17.005	-72.970	15.183	0
20278.353	-73.335	17.070	-72.913	15.229	0
20278.478	-73.241	17.081	-72.785	15.222	0
20278.603	-73.153	17.091	-72.667	15.218	0
20278.728	-73.072	17.100	-72.558	15.215	0
20278.853	-72.999	17.109	-72.458	15.212	0
20278.978	-72.971	17.147	-72.407	15.240	0
20279.103	-72.965	17.209	-72.379	15.294	0
20279.228	-72.929	17.248	-72.321	15.327	0
20279.353	-72.896	17.286	-72.265	15.361	0
20279.478	-72.872	17.326	-72.219	15.398	0
20279.603	-72.850	17.365	-72.177	15.436	0
20279.728	-72.825	17.405	-72.132	15.477	0
20279.853	-72.783	17.451	-72.072	15.524	0
20279.978	-72.718	17.467	-71.989	15.543	0
20280.103	-72.653	17.482	-71.906	15.564	0
20280.228	-72.588	17.498	-71.825	15.588	0
20280.353	-72.523	17.513	-71.746	15.613	0
20280.478	-72.457	17.529	-71.669	15.639	0
20280.603	-72.392	17.544	-71.593	15.666	0
20280.728	-72.323	17.555	-71.514	15.690	0
20280.853	-72.235	17.551	-71.417	15.698	0
20280.978	-72.152	17.556	-71.325	15.714	0
20281.103	-72.069	17.560	-71.232	15.728	0
20281.228	-71.986	17.565	-71.140	15.741	0
20281.353	-71.903	17.569	-71.047	15.752	0
20281.478	-71.819	17.574	-70.953	15.763	0
20281.603	-71.736	17.578	-70.860	15.775	0
20281.728	-71.693	17.556	-70.808	15.759	0
20281.853	-71.656	17.536	-70.762	15.746	0
20281.978	-71.624	17.518	-70.722	15.736	0
20282.103	-71.579	17.506	-70.667	15.730	0
20282.228	-71.513	17.497	-70.591	15.729	0
20282.353	-71.457	17.487	-70.524	15.726	0
20282.478	-71.402	17.475	-70.459	15.722	0
20282.603	-71.349	17.464	-70.396	15.718	0
20282.728	-71.300	17.458	-70.338	15.720	0
20282.853	-71.240	17.450	-70.267	15.720	0
20282.978	-71.164	17.438	-70.179	15.717	0
20283.103	-71.124	17.452	-70.127	15.736	0
20283.228	-71.083	17.465	-70.073	15.754	0
20283.353	-71.043	17.478	-70.018	15.770	0
20283.478	-71.003	17.491	-69.962	15.786	0
20283.603	-70.963	17.505	-69.905	15.800	0
20283.728	-70.923	17.518	-69.847	15.813	0
20283.853	-70.888	17.535	-69.793	15.829	0
20283.978	-70.853	17.551	-69.738	15.845	0
20284.103	-70.818	17.568	-69.681	15.860	0
20284.228	-70.783	17.585	-69.624	15.874	0
20284.353	-70.748	17.601	-69.566	15.889	0
20284.478	-70.713	17.618	-69.507	15.902	0
20284.603	-70.678	17.635	-69.447	15.916	0
20284.728	-70.586	17.648	-69.329	15.926	0
20284.853	-70.495	17.661	-69.215	15.937	0
20284.978	-70.403	17.673	-69.103	15.948	0
20285.103	-70.312	17.686	-68.994	15.959	0
20285.228	-70.220	17.699	-68.887	15.969	0
20285.353	-70.129	17.712	-68.783	15.978	0
20285.478	-70.250	17.800	-68.901	16.060	0
20285.603	-70.180	17.822	-68.820	16.080	0
20285.728	-70.110	17.843	-68.741	16.097	0
20285.853	-70.040	17.864	-68.664	16.114	0
20285.978	-69.970	17.885	-68.588	16.129	0
20286.103	-69.900	17.906	-68.514	16.143	0
20286.228	-69.830	17.927	-68.441	16.158	0
20286.353	-69.760	17.949	-68.370	16.172	0
20286.478	-69.690	17.970	-68.300	16.186	0
20286.603	-69.620	17.991	-68.231	16.200	0
20286.728	-69.549	18.012	-68.162	16.213	0
20286.853	-69.479	18.033	-68.095	16.226	0
20286.978	-69.409	18.055	-68.028	16.238	0
20287.103	-69.339	18.076	-67.961	16.249	0
20287.228	-69.269	18.097	-67.896	16.259	0
20287.353	-69.199	18.118	-67.830	16.267	0
20287.478	-69.129	18.139	-67.764	16.275	0
20287.603	-69.059	18.161	-67.691	16.296	0
20287.728	-68.989	18.182	-67.618	16.317	0
20287.853	-68.919	18.203	-67.545	16.339	0
20287.978	-68.849	18.224	-67.472	16.360	0
