Tag:	57123
Reference:	tu20_355_05
Coast Distance (km): 	30.0
Estimation Time Delay (days): 	0.0

CNES Day	Lon	Lat	LonCor	LatCor	Delay
20669.557	-42.820	-27.126	-42.820	-27.126	0
20669.682	-42.770	-27.090	-42.767	-27.085	0
20669.807	-42.714	-27.053	-42.708	-27.043	0
20669.932	-42.643	-27.010	-42.630	-26.997	0
20670.057	-42.598	-26.962	-42.579	-26.947	0
20670.182	-42.577	-26.909	-42.556	-26.894	0
20670.307	-42.555	-26.856	-42.532	-26.841	0
20670.432	-42.534	-26.803	-42.509	-26.789	0
20670.557	-42.513	-26.749	-42.486	-26.737	0
20670.682	-42.492	-26.696	-42.463	-26.685	0
20670.807	-42.470	-26.643	-42.440	-26.633	0
20670.932	-42.409	-26.595	-42.375	-26.585	0
20671.057	-42.348	-26.546	-42.311	-26.537	0
20671.182	-42.288	-26.498	-42.250	-26.487	0
20671.307	-42.227	-26.450	-42.190	-26.438	0
20671.432	-42.166	-26.402	-42.133	-26.387	0
20671.557	-42.105	-26.353	-42.078	-26.337	0
20671.682	-42.045	-26.305	-42.024	-26.286	0
20671.807	-41.984	-26.257	-41.972	-26.236	0
20671.932	-41.923	-26.209	-41.920	-26.187	0
20672.057	-41.863	-26.162	-41.869	-26.142	0
20672.182	-41.815	-26.146	-41.831	-26.129	0
20672.307	-41.762	-26.119	-41.788	-26.108	0
20672.432	-41.702	-26.074	-41.736	-26.071	0
20672.557	-41.642	-26.029	-41.684	-26.037	0
20672.682	-41.582	-25.984	-41.630	-26.006	0
20672.807	-41.547	-25.924	-41.603	-25.963	0
20672.932	-41.513	-25.864	-41.575	-25.922	0
20673.057	-41.479	-25.804	-41.545	-25.882	0
20673.182	-41.445	-25.743	-41.514	-25.844	0
20673.307	-41.410	-25.683	-41.480	-25.807	0
20673.432	-41.376	-25.623	-41.446	-25.772	0
20673.557	-41.341	-25.562	-41.410	-25.738	0
20673.682	-41.306	-25.502	-41.373	-25.704	0
20673.807	-41.272	-25.442	-41.337	-25.670	0
20673.932	-41.237	-25.381	-41.302	-25.633	0
20674.057	-41.189	-25.300	-41.253	-25.573	0
20674.182	-41.155	-25.226	-41.222	-25.516	0
20674.307	-41.172	-25.181	-41.248	-25.485	0
20674.432	-41.188	-25.137	-41.274	-25.452	0
20674.557	-41.202	-25.092	-41.295	-25.418	0
20674.682	-41.173	-25.039	-41.269	-25.374	0
20674.807	-41.144	-24.986	-41.244	-25.327	0
20674.932	-41.114	-24.933	-41.220	-25.278	0
20675.057	-41.085	-24.880	-41.196	-25.226	0
20675.182	-41.056	-24.827	-41.172	-25.172	0
20675.307	-41.027	-24.774	-41.148	-25.117	0
20675.432	-40.997	-24.721	-41.123	-25.059	0
20675.557	-40.968	-24.668	-41.098	-25.000	0
20675.682	-40.939	-24.615	-41.071	-24.939	0
20675.807	-40.910	-24.562	-41.041	-24.878	0
20675.932	-40.880	-24.508	-41.010	-24.817	0
20676.057	-40.851	-24.458	-40.977	-24.758	0
20676.182	-40.823	-24.410	-40.943	-24.701	0
20676.307	-40.795	-24.371	-40.907	-24.653	0
20676.432	-40.766	-24.338	-40.869	-24.611	0
20676.557	-40.738	-24.306	-40.830	-24.568	0
20676.682	-40.710	-24.273	-40.790	-24.524	0
20676.807	-40.682	-24.240	-40.750	-24.480	0
20676.932	-40.654	-24.208	-40.710	-24.433	0
20677.057	-40.625	-24.175	-40.670	-24.386	0
20677.182	-40.597	-24.142	-40.630	-24.338	0
20677.307	-40.569	-24.110	-40.591	-24.289	0
20677.432	-40.541	-24.077	-40.551	-24.239	0
20677.557	-40.512	-24.046	-40.511	-24.190	0
20677.682	-40.484	-24.015	-40.471	-24.140	0
20677.807	-40.455	-23.984	-40.431	-24.090	0
20677.932	-40.426	-23.953	-40.392	-24.038	0
20678.057	-40.398	-23.922	-40.354	-23.985	0
20678.182	-40.369	-23.891	-40.316	-23.932	0
20678.307	-40.341	-23.861	-40.279	-23.877	0
20678.432	-40.312	-23.830	-40.243	-23.822	0
20678.557	-40.291	-23.796	-40.216	-23.764	0
20678.682	-40.291	-23.756	-40.212	-23.699	0
20678.807	-40.279	-23.716	-40.195	-23.634	0
20678.932	-40.262	-23.677	-40.175	-23.568	0
20679.057	-40.246	-23.638	-40.156	-23.502	0
20679.182	-40.230	-23.598	-40.138	-23.435	0
20679.307	-40.214	-23.559	-40.121	-23.367	0
20679.432	-40.198	-23.520	-40.104	-23.298	0
20679.557	-40.182	-23.480	-40.089	-23.228	0
20679.682	-40.166	-23.441	-40.074	-23.159	0
20679.807	-40.200	-23.382	-40.115	-23.070	0
20679.932	-40.376	-23.266	-40.310	-22.922	0
20680.057	-40.365	-23.202	-40.299	-22.820	0
20680.182	-40.268	-23.163	-40.194	-22.743	0
20680.307	-40.170	-23.124	-40.089	-22.668	0
20680.432	-40.073	-23.086	-39.986	-22.595	0
20680.557	-39.975	-23.047	-39.882	-22.526	0
20680.682	-39.986	-23.037	-39.894	-22.489	0
20680.807	-40.030	-23.032	-39.941	-22.457	0
20680.932	-40.021	-22.975	-39.931	-22.373	0
20681.057	-40.013	-22.919	-39.918	-22.289	0
20681.182	-40.004	-22.862	-39.901	-22.206	0
20681.307	-39.985	-22.836	-39.872	-22.154	0
20681.432	-39.958	-22.836	-39.831	-22.129	0
20681.557	-39.932	-22.836	-39.791	-22.106	0
20681.682	-39.905	-22.836	-39.750	-22.083	0
20681.807	-39.878	-22.836	-39.709	-22.062	0
20681.932	-39.956	-22.830	-39.782	-22.036	0
20682.057	-40.206	-22.814	-40.039	-21.999	0
20682.182	-40.456	-22.797	-40.297	-21.958	0
20682.307	-40.514	-22.772	-40.352	-21.908	0
20682.432	-40.301	-22.733	-40.117	-21.845	0
20682.557	-40.089	-22.694	-39.874	-21.786	0
20682.682	-39.877	-22.655	-39.628	-21.729	0
20682.807	-39.868	-22.624	-39.599	-21.682	0
20682.932	-39.865	-22.593	-39.576	-21.636	0
20683.057	-39.862	-22.563	-39.551	-21.590	0
20683.182	-39.859	-22.532	-39.525	-21.545	0
20683.307	-39.857	-22.501	-39.499	-21.500	0
20683.432	-39.854	-22.470	-39.471	-21.456	0
20683.557	-39.851	-22.440	-39.443	-21.411	0
20683.682	-39.848	-22.409	-39.415	-21.367	0
20683.807	-39.845	-22.378	-39.387	-21.323	0
20683.932	-39.842	-22.347	-39.359	-21.279	0
20684.057	-39.839	-22.317	-39.331	-21.235	0
20684.182	-39.818	-22.294	-39.284	-21.198	0
20684.307	-39.746	-22.292	-39.181	-21.183	0
20684.432	-39.711	-22.286	-39.119	-21.163	0
20684.557	-39.693	-22.277	-39.074	-21.140	0
20684.682	-39.674	-22.268	-39.030	-21.118	0
20684.807	-39.663	-22.258	-38.994	-21.093	0
20684.932	-39.664	-22.246	-38.972	-21.066	0
20685.057	-39.665	-22.233	-38.950	-21.039	0
20685.182	-39.666	-22.221	-38.929	-21.012	0
20685.307	-39.655	-22.221	-38.896	-20.997	0
20685.432	-39.640	-22.225	-38.860	-20.986	0
20685.557	-39.626	-22.229	-38.825	-20.975	0
20685.682	-39.611	-22.234	-38.789	-20.966	0
20685.807	-39.597	-22.238	-38.754	-20.958	0
20685.932	-39.582	-22.242	-38.717	-20.953	0
20686.057	-39.571	-22.237	-38.684	-20.941	0
20686.182	-39.573	-22.201	-38.663	-20.900	0
20686.307	-39.589	-22.163	-38.656	-20.859	0
20686.432	-39.609	-22.124	-38.653	-20.818	0
20686.557	-39.629	-22.085	-38.651	-20.779	0
20686.682	-39.650	-22.045	-38.650	-20.741	0
20686.807	-39.670	-22.006	-38.650	-20.703	0
20686.932	-39.691	-21.967	-38.652	-20.663	0
20687.057	-39.711	-21.927	-38.655	-20.624	0
20687.182	-39.691	-21.862	-38.617	-20.559	0
20687.307	-39.662	-21.791	-38.571	-20.487	0
20687.432	-39.633	-21.720	-38.529	-20.416	0
20687.557	-39.609	-21.650	-38.496	-20.345	0
20687.682	-39.588	-21.582	-38.471	-20.276	0
20687.807	-39.567	-21.514	-38.450	-20.206	0
20687.932	-39.547	-21.445	-38.432	-20.137	0
20688.057	-39.526	-21.377	-38.417	-20.067	0
20688.182	-39.499	-21.310	-38.399	-19.999	0
20688.307	-39.468	-21.246	-38.379	-19.933	0
20688.432	-39.456	-21.206	-38.382	-19.891	0
20688.557	-39.426	-21.156	-38.365	-19.840	0
20688.682	-39.397	-21.106	-38.347	-19.789	0
20688.807	-39.380	-21.062	-38.344	-19.746	0
20688.932	-39.367	-21.019	-38.344	-19.706	0
20689.057	-39.355	-20.977	-38.344	-19.666	0
20689.182	-39.342	-20.934	-38.344	-19.629	0
20689.307	-39.329	-20.892	-38.343	-19.592	0
20689.432	-39.317	-20.849	-38.340	-19.557	0
20689.557	-39.304	-20.807	-38.336	-19.523	0
20689.682	-39.291	-20.764	-38.330	-19.490	0
20689.807	-39.282	-20.721	-38.326	-19.458	0
20689.932	-39.287	-20.674	-38.334	-19.422	0
20690.057	-39.291	-20.627	-38.341	-19.389	0
20690.182	-39.296	-20.581	-38.347	-19.357	0
20690.307	-39.293	-20.530	-38.343	-19.322	0
20690.432	-39.291	-20.479	-38.338	-19.287	0
20690.557	-39.288	-20.429	-38.332	-19.253	0
20690.682	-39.285	-20.378	-38.324	-19.218	0
20690.807	-39.281	-20.328	-38.314	-19.185	0
20690.932	-39.256	-20.289	-38.279	-19.163	0
20691.057	-39.230	-20.249	-38.245	-19.139	0
20691.182	-39.204	-20.210	-38.209	-19.113	0
20691.307	-39.179	-20.170	-38.173	-19.086	0
20691.432	-39.153	-20.131	-38.137	-19.058	0
20691.557	-39.127	-20.091	-38.101	-19.028	0
20691.682	-39.102	-20.052	-38.064	-18.997	0
20691.807	-39.076	-20.012	-38.027	-18.964	0
20691.932	-39.050	-19.973	-37.991	-18.930	0
20692.057	-39.025	-19.933	-37.954	-18.894	0
20692.182	-39.023	-19.891	-37.943	-18.854	0
20692.307	-39.022	-19.851	-37.931	-18.814	0
20692.432	-39.010	-19.819	-37.907	-18.783	0
20692.557	-39.014	-19.805	-37.901	-18.767	0
20692.682	-39.026	-19.799	-37.902	-18.759	0
20692.807	-39.072	-19.742	-37.939	-18.701	0
20692.932	-39.097	-19.718	-37.952	-18.677	0
20693.057	-39.098	-19.733	-37.939	-18.693	0
20693.182	-39.100	-19.747	-37.926	-18.709	0
20693.307	-39.101	-19.762	-37.913	-18.726	0
20693.432	-39.080	-19.750	-37.877	-18.716	0
20693.557	-39.068	-19.746	-37.852	-18.713	0
20693.682	-39.084	-19.766	-37.855	-18.734	0
20693.807	-39.102	-19.780	-37.859	-18.751	0
20693.932	-39.122	-19.787	-37.865	-18.763	0
20694.057	-39.142	-19.794	-37.870	-18.778	0
20694.182	-39.162	-19.802	-37.873	-18.795	0
20694.307	-39.182	-19.809	-37.876	-18.814	0
20694.432	-39.202	-19.816	-37.878	-18.835	0
20694.557	-39.222	-19.824	-37.879	-18.859	0
20694.682	-39.236	-19.838	-37.874	-18.892	0
20694.807	-39.243	-19.839	-37.860	-18.912	0
20694.932	-39.241	-19.820	-37.836	-18.914	0
20695.057	-39.240	-19.802	-37.811	-18.917	0
20695.182	-39.238	-19.784	-37.785	-18.920	0
20695.307	-39.236	-19.766	-37.757	-18.923	0
20695.432	-39.234	-19.748	-37.728	-18.927	0
20695.557	-39.233	-19.729	-37.698	-18.931	0
20695.682	-39.231	-19.711	-37.668	-18.935	0
20695.807	-39.229	-19.693	-37.638	-18.938	0
20695.932	-39.208	-19.673	-37.589	-18.937	0
20696.057	-39.185	-19.652	-37.538	-18.932	0
20696.182	-39.162	-19.631	-37.489	-18.926	0
20696.307	-39.133	-19.608	-37.435	-18.913	0
20696.432	-39.096	-19.580	-37.374	-18.894	0
20696.557	-39.059	-19.553	-37.315	-18.871	0
20696.682	-39.024	-19.532	-37.258	-18.853	0
20696.807	-38.992	-19.540	-37.207	-18.860	0
20696.932	-38.960	-19.547	-37.157	-18.866	0
20697.057	-38.928	-19.554	-37.108	-18.871	0
20697.182	-38.897	-19.562	-37.061	-18.876	0
20697.307	-38.865	-19.569	-37.014	-18.880	0
20697.432	-38.833	-19.576	-36.969	-18.884	0
20697.557	-38.828	-19.600	-36.953	-18.903	0
20697.682	-38.830	-19.628	-36.945	-18.927	0
20697.807	-38.833	-19.656	-36.939	-18.950	0
20697.932	-38.835	-19.684	-36.933	-18.973	0
20698.057	-38.837	-19.712	-36.929	-18.995	0
20698.182	-38.840	-19.740	-36.925	-19.017	0
20698.307	-38.842	-19.768	-36.923	-19.037	0
20698.432	-38.845	-19.795	-36.922	-19.057	0
20698.557	-38.861	-19.819	-36.937	-19.071	0
20698.682	-38.901	-19.835	-36.978	-19.078	0
20698.807	-38.936	-19.855	-37.014	-19.089	0
20698.932	-38.970	-19.878	-37.049	-19.103	0
20699.057	-39.003	-19.900	-37.085	-19.118	0
20699.182	-39.036	-19.922	-37.121	-19.133	0
20699.307	-39.070	-19.945	-37.157	-19.150	0
20699.432	-39.103	-19.967	-37.194	-19.167	0
20699.557	-39.137	-19.989	-37.232	-19.187	0
20699.682	-39.175	-20.014	-37.275	-19.209	0
20699.807	-39.207	-20.044	-37.311	-19.239	0
20699.932	-39.217	-20.096	-37.323	-19.291	0
20700.057	-39.241	-20.135	-37.348	-19.332	0
20700.182	-39.290	-20.151	-37.398	-19.351	0
20700.307	-39.338	-20.168	-37.448	-19.372	0
20700.432	-39.386	-20.184	-37.497	-19.394	0
20700.557	-39.434	-20.201	-37.545	-19.418	0
20700.682	-39.482	-20.217	-37.592	-19.444	0
20700.807	-39.530	-20.234	-37.638	-19.473	0
20700.932	-39.574	-20.282	-37.681	-19.535	0
20701.057	-39.618	-20.331	-37.723	-19.601	0
20701.182	-39.662	-20.380	-37.764	-19.669	0
20701.307	-39.693	-20.419	-37.793	-19.729	0
20701.432	-39.716	-20.452	-37.814	-19.782	0
20701.557	-39.739	-20.484	-37.835	-19.836	0
20701.682	-39.761	-20.517	-37.858	-19.888	0
20701.807	-39.784	-20.550	-37.881	-19.937	0
20701.932	-39.803	-20.566	-37.901	-19.968	0
20702.057	-39.819	-20.568	-37.917	-19.984	0
20702.182	-39.829	-20.572	-37.928	-19.999	0
20702.307	-39.832	-20.576	-37.931	-20.014	0
20702.432	-39.836	-20.580	-37.934	-20.027	0
20702.557	-39.839	-20.584	-37.937	-20.040	0
20702.682	-39.843	-20.588	-37.940	-20.051	0
20702.807	-39.846	-20.593	-37.943	-20.062	0
20702.932	-39.850	-20.597	-37.946	-20.072	0
20703.057	-39.853	-20.601	-37.950	-20.081	0
20703.182	-39.857	-20.605	-37.954	-20.091	0
20703.307	-39.860	-20.609	-37.959	-20.099	0
20703.432	-39.798	-20.540	-37.894	-20.034	0
20703.557	-39.715	-20.448	-37.804	-19.947	0
20703.682	-39.633	-20.357	-37.712	-19.864	0
20703.807	-39.599	-20.329	-37.669	-19.846	0
20703.932	-39.619	-20.374	-37.684	-19.900	0
20704.057	-39.639	-20.419	-37.700	-19.954	0
20704.182	-39.647	-20.452	-37.703	-19.994	0
20704.307	-39.624	-20.454	-37.674	-20.004	0
20704.432	-39.601	-20.456	-37.645	-20.012	0
20704.557	-39.578	-20.458	-37.616	-20.020	0
20704.682	-39.555	-20.461	-37.587	-20.027	0
20704.807	-39.532	-20.463	-37.558	-20.033	0
20704.932	-39.509	-20.465	-37.528	-20.037	0
20705.057	-39.486	-20.468	-37.498	-20.040	0
20705.182	-39.463	-20.470	-37.468	-20.043	0
20705.307	-39.440	-20.472	-37.437	-20.044	0
20705.432	-39.417	-20.474	-37.406	-20.043	0
20705.557	-39.393	-20.477	-37.374	-20.042	0
20705.682	-39.370	-20.479	-37.343	-20.040	0
20705.807	-39.333	-20.490	-37.297	-20.047	0
20705.932	-39.123	-20.614	-37.067	-20.165	0
20706.057	-38.913	-20.738	-36.836	-20.279	0
20706.182	-38.702	-20.862	-36.605	-20.391	0
20706.307	-38.567	-20.940	-36.454	-20.459	0
20706.432	-38.577	-20.932	-36.458	-20.443	0
20706.557	-38.587	-20.923	-36.463	-20.426	0
20706.682	-38.597	-20.915	-36.468	-20.409	0
20706.807	-38.607	-20.907	-36.473	-20.393	0
20706.932	-38.617	-20.898	-36.477	-20.376	0
20707.057	-38.627	-20.890	-36.482	-20.360	0
20707.182	-38.636	-20.881	-36.487	-20.344	0
20707.307	-38.646	-20.873	-36.491	-20.329	0
20707.432	-38.656	-20.865	-36.496	-20.313	0
20707.557	-38.666	-20.856	-36.500	-20.298	0
20707.682	-38.676	-20.848	-36.505	-20.283	0
20707.807	-38.686	-20.840	-36.509	-20.268	0
20707.932	-38.696	-20.831	-36.513	-20.253	0
20708.057	-38.705	-20.823	-36.518	-20.237	0
20708.182	-38.715	-20.814	-36.522	-20.222	0
20708.307	-38.725	-20.806	-36.527	-20.206	0
20708.432	-38.735	-20.798	-36.531	-20.190	0
20708.557	-38.745	-20.789	-36.536	-20.174	0
20708.682	-38.755	-20.781	-36.540	-20.158	0
20708.807	-38.733	-20.793	-36.511	-20.162	0
20708.932	-38.702	-20.812	-36.472	-20.173	0
20709.057	-38.670	-20.831	-36.433	-20.183	0
20709.182	-38.638	-20.849	-36.393	-20.193	0
20709.307	-38.563	-20.861	-36.308	-20.197	0
20709.432	-38.489	-20.872	-36.223	-20.201	0
20709.557	-38.414	-20.883	-36.138	-20.207	0
20709.682	-38.340	-20.894	-36.054	-20.214	0
20709.807	-38.306	-20.905	-36.013	-20.222	0
20709.932	-38.364	-20.917	-36.070	-20.231	0
20710.057	-38.403	-20.926	-36.107	-20.236	0
20710.182	-38.420	-20.933	-36.120	-20.238	0
20710.307	-38.379	-20.933	-36.072	-20.232	0
20710.432	-38.339	-20.933	-36.025	-20.227	0
20710.557	-38.299	-20.933	-35.977	-20.222	0
20710.682	-38.259	-20.933	-35.930	-20.217	0
20710.807	-38.218	-20.933	-35.882	-20.213	0
20710.932	-38.178	-20.933	-35.834	-20.209	0
20711.057	-38.138	-20.933	-35.786	-20.205	0
20711.182	-38.098	-20.933	-35.738	-20.202	0
20711.307	-38.057	-20.933	-35.689	-20.199	0
20711.432	-38.017	-20.932	-35.641	-20.196	0
20711.557	-37.977	-20.932	-35.592	-20.193	0
20711.682	-37.937	-20.932	-35.543	-20.191	0
20711.807	-37.897	-20.932	-35.493	-20.188	0
20711.932	-37.856	-20.932	-35.443	-20.185	0
20712.057	-37.816	-20.932	-35.393	-20.181	0
20712.182	-37.776	-20.932	-35.342	-20.178	0
20712.307	-37.736	-20.932	-35.291	-20.173	0
20712.432	-37.695	-20.932	-35.240	-20.169	0
20712.557	-37.655	-20.932	-35.188	-20.164	0
20712.682	-37.615	-20.932	-35.135	-20.159	0
20712.807	-37.567	-20.924	-35.075	-20.145	0
20712.932	-37.528	-20.911	-35.022	-20.126	0
20713.057	-37.502	-20.888	-34.983	-20.097	0
20713.182	-37.477	-20.865	-34.944	-20.068	0
20713.307	-37.451	-20.842	-34.904	-20.039	0
20713.432	-37.425	-20.819	-34.864	-20.009	0
20713.557	-37.401	-20.800	-34.826	-19.984	0
20713.682	-37.394	-20.825	-34.804	-20.002	0
20713.807	-37.378	-20.824	-34.774	-19.995	0
20713.932	-37.355	-20.802	-34.736	-19.966	0
20714.057	-37.332	-20.779	-34.698	-19.936	0
20714.182	-37.309	-20.757	-34.660	-19.907	0
20714.307	-37.285	-20.735	-34.623	-19.877	0
20714.432	-37.262	-20.712	-34.585	-19.847	0
20714.557	-37.239	-20.690	-34.548	-19.817	0
20714.682	-37.216	-20.668	-34.510	-19.787	0
20714.807	-37.190	-20.644	-34.469	-19.756	0
20714.932	-37.143	-20.610	-34.405	-19.715	0
20715.057	-37.111	-20.576	-34.357	-19.673	0
20715.182	-37.099	-20.542	-34.330	-19.629	0
20715.307	-37.087	-20.507	-34.304	-19.587	0
20715.432	-37.076	-20.472	-34.278	-19.544	0
20715.557	-37.064	-20.438	-34.253	-19.501	0
20715.682	-37.052	-20.403	-34.228	-19.458	0
20715.807	-37.040	-20.368	-34.203	-19.415	0
20715.932	-37.028	-20.333	-34.178	-19.371	0
20716.057	-37.017	-20.299	-34.155	-19.327	0
20716.182	-37.005	-20.264	-34.131	-19.282	0
20716.307	-36.992	-20.240	-34.107	-19.248	0
20716.432	-36.976	-20.230	-34.082	-19.228	0
20716.557	-36.961	-20.220	-34.056	-19.208	0
20716.682	-36.946	-20.210	-34.032	-19.187	0
20716.807	-36.931	-20.201	-34.007	-19.166	0
20716.932	-36.916	-20.191	-33.984	-19.144	0
20717.057	-36.901	-20.181	-33.961	-19.122	0
20717.182	-36.886	-20.171	-33.939	-19.098	0
20717.307	-36.873	-20.160	-33.920	-19.072	0
20717.432	-36.872	-20.135	-33.914	-19.033	0
20717.557	-36.870	-20.116	-33.908	-18.999	0
20717.682	-36.866	-20.103	-33.901	-18.969	0
20717.807	-36.862	-20.089	-33.894	-18.940	0
20717.932	-36.859	-20.075	-33.887	-18.912	0
20718.057	-36.855	-20.061	-33.880	-18.885	0
20718.182	-36.861	-20.044	-33.885	-18.855	0
20718.307	-36.877	-20.025	-33.899	-18.824	0
20718.432	-36.892	-20.005	-33.913	-18.793	0
20718.557	-36.907	-19.986	-33.928	-18.763	0
20718.682	-36.922	-19.966	-33.943	-18.734	0
20718.807	-36.918	-19.949	-33.938	-18.705	0
20718.932	-36.880	-19.933	-33.897	-18.679	0
20719.057	-36.870	-19.926	-33.887	-18.660	0
20719.182	-36.887	-19.925	-33.905	-18.646	0
20719.307	-36.904	-19.924	-33.923	-18.632	0
20719.432	-36.921	-19.924	-33.941	-18.618	0
20719.557	-36.939	-19.923	-33.960	-18.602	0
20719.682	-36.956	-19.922	-33.979	-18.587	0
20719.807	-36.980	-19.920	-34.005	-18.570	0
20719.932	-37.013	-19.917	-34.042	-18.552	0
20720.057	-37.017	-19.915	-34.049	-18.536	0
20720.182	-37.014	-19.913	-34.048	-18.520	0
20720.307	-37.011	-19.912	-34.048	-18.504	0
20720.432	-37.008	-19.910	-34.047	-18.489	0
20720.557	-37.005	-19.908	-34.047	-18.473	0
20720.682	-37.001	-19.907	-34.046	-18.457	0
20720.807	-36.998	-19.905	-34.045	-18.441	0
20720.932	-36.907	-19.993	-33.950	-18.515	0
20721.057	-36.886	-20.042	-33.928	-18.549	0
20721.182	-37.078	-19.967	-34.128	-18.459	0
20721.307	-37.140	-19.929	-34.194	-18.412	0
20721.432	-37.121	-19.915	-34.175	-18.392	0
20721.557	-37.102	-19.901	-34.156	-18.371	0
20721.682	-37.083	-19.887	-34.136	-18.350	0
20721.807	-37.064	-19.873	-34.116	-18.329	0
20721.932	-37.095	-19.889	-34.147	-18.338	0
20722.057	-37.184	-19.943	-34.239	-18.386	0
20722.182	-37.196	-19.958	-34.250	-18.399	0
20722.307	-37.192	-19.962	-34.243	-18.402	0
20722.432	-37.188	-19.949	-34.237	-18.387	0
20722.557	-37.185	-19.936	-34.230	-18.373	0
20722.682	-37.184	-19.924	-34.225	-18.360	0
20722.807	-37.230	-19.930	-34.271	-18.366	0
20722.932	-37.276	-19.936	-34.316	-18.373	0
20723.057	-37.322	-19.941	-34.363	-18.382	0
20723.182	-37.368	-19.947	-34.409	-18.393	0
20723.307	-37.414	-19.953	-34.456	-18.406	0
20723.432	-37.460	-19.959	-34.503	-18.420	0
20723.557	-37.506	-19.964	-34.550	-18.435	0
20723.682	-37.552	-19.970	-34.598	-18.451	0
20723.807	-37.585	-19.936	-34.631	-18.428	0
20723.932	-37.610	-19.882	-34.658	-18.385	0
20724.057	-37.634	-19.877	-34.683	-18.392	0
20724.182	-37.656	-19.913	-34.708	-18.439	0
20724.307	-37.679	-19.948	-34.733	-18.487	0
20724.432	-37.703	-19.974	-34.760	-18.524	0
20724.557	-37.730	-19.988	-34.791	-18.549	0
20724.682	-37.779	-19.998	-34.845	-18.570	0
20724.807	-37.833	-20.007	-34.905	-18.590	0
20724.932	-37.887	-20.016	-34.966	-18.609	0
20725.057	-37.941	-20.024	-35.027	-18.629	0
20725.182	-37.994	-20.033	-35.089	-18.649	0
20725.307	-38.012	-20.053	-35.113	-18.679	0
20725.432	-38.021	-20.075	-35.128	-18.712	0
20725.557	-38.030	-20.098	-35.143	-18.744	0
20725.682	-38.039	-20.120	-35.158	-18.776	0
20725.807	-38.048	-20.143	-35.173	-18.807	0
