Tag:	49806
Reference:	tu22_9432_05
Coast Distance (km): 	30.0
Estimation Time Delay (days): 	0.0

CNES Day	Lon	Lat	LonCor	LatCor	Delay
20295.967	-53.947	5.742	-53.947	5.742	0
20296.092	-53.950	5.744	-54.923	4.773	0
20296.217	-53.952	5.745	-54.926	4.774	0
20296.342	-53.955	5.747	-54.928	4.776	0
20296.467	-53.957	5.748	-54.931	4.778	0
20296.592	-53.960	5.750	-54.933	4.779	0
20296.717	-53.943	5.798	-54.916	4.828	0
20296.842	-53.925	5.847	-54.898	4.876	0
20296.967	-53.907	5.896	-54.880	4.925	0
20297.092	-53.889	5.944	-54.862	4.974	0
20297.217	-53.872	5.993	-54.845	5.023	0
20297.342	-53.854	6.042	-54.827	5.072	0
20297.467	-53.836	6.091	-54.809	5.121	0
20297.592	-53.819	6.139	-54.782	5.168	0
20297.717	-53.801	6.188	-54.756	5.214	0
20297.842	-53.792	6.248	-54.738	5.269	0
20297.967	-53.806	6.339	-54.745	5.355	0
20298.092	-53.820	6.429	-54.751	5.439	0
20298.217	-53.834	6.520	-54.758	5.524	0
20298.342	-53.848	6.611	-54.764	5.609	0
20298.467	-53.862	6.702	-54.768	5.692	0
20298.592	-53.876	6.792	-54.767	5.773	0
20298.717	-53.890	6.883	-54.764	5.852	0
20298.842	-53.904	6.974	-54.756	5.930	0
20298.967	-53.875	7.042	-54.699	5.983	0
20299.092	-53.843	7.109	-54.635	6.034	0
20299.217	-53.811	7.176	-54.565	6.085	0
20299.342	-53.819	7.244	-54.531	6.137	0
20299.467	-53.844	7.312	-54.511	6.190	0
20299.592	-53.870	7.381	-54.487	6.244	0
20299.717	-53.896	7.449	-54.460	6.297	0
20299.842	-53.921	7.518	-54.429	6.350	0
20299.967	-53.956	7.575	-54.404	6.391	0
20300.092	-54.001	7.618	-54.387	6.417	0
20300.217	-54.046	7.661	-54.369	6.444	0
20300.342	-54.091	7.705	-54.352	6.469	0
20300.467	-54.136	7.748	-54.334	6.494	0
20300.592	-54.179	7.807	-54.314	6.534	0
20300.717	-54.221	7.883	-54.291	6.589	0
20300.842	-54.263	7.959	-54.266	6.642	0
20300.967	-54.304	8.034	-54.242	6.695	0
20301.092	-54.346	8.110	-54.218	6.746	0
20301.217	-54.387	8.185	-54.195	6.795	0
20301.342	-54.429	8.261	-54.173	6.844	0
20301.467	-54.470	8.337	-54.153	6.891	0
20301.592	-54.512	8.412	-54.138	6.937	0
20301.717	-54.554	8.488	-54.126	6.982	0
20301.842	-54.595	8.563	-54.119	7.025	0
20301.967	-54.637	8.639	-54.115	7.066	0
20302.092	-54.678	8.715	-54.115	7.106	0
20302.217	-54.720	8.790	-54.119	7.146	0
20302.342	-54.761	8.866	-54.127	7.185	0
20302.467	-54.778	8.957	-54.114	7.239	0
20302.592	-54.776	9.059	-54.088	7.306	0
20302.717	-54.774	9.162	-54.067	7.374	0
20302.842	-54.772	9.264	-54.053	7.443	0
20302.967	-54.770	9.367	-54.045	7.513	0
20303.092	-54.768	9.469	-54.044	7.584	0
20303.217	-54.766	9.572	-54.049	7.657	0
20303.342	-54.720	9.671	-54.016	7.729	0
20303.467	-54.671	9.770	-53.984	7.805	0
20303.592	-54.621	9.870	-53.958	7.884	0
20303.717	-54.572	9.969	-53.938	7.969	0
20303.842	-54.522	10.063	-53.923	8.053	0
20303.967	-54.470	10.096	-53.908	8.082	0
20304.092	-54.417	10.130	-53.895	8.115	0
20304.217	-54.365	10.163	-53.883	8.152	0
20304.342	-54.313	10.197	-53.873	8.192	0
20304.467	-54.260	10.230	-53.863	8.236	0
20304.592	-54.208	10.264	-53.852	8.280	0
20304.717	-54.156	10.297	-53.840	8.325	0
20304.842	-54.104	10.331	-53.828	8.372	0
20304.967	-54.051	10.364	-53.815	8.420	0
20305.092	-53.999	10.398	-53.800	8.468	0
20305.217	-53.947	10.431	-53.784	8.517	0
20305.342	-53.895	10.465	-53.767	8.566	0
20305.467	-53.842	10.498	-53.748	8.614	0
20305.592	-53.727	10.503	-53.664	8.632	0
20305.717	-53.575	10.492	-53.541	8.632	0
20305.842	-53.531	10.532	-53.526	8.682	0
20305.967	-53.487	10.572	-53.507	8.730	0
20306.092	-53.453	10.612	-53.495	8.776	0
20306.217	-53.420	10.652	-53.481	8.821	0
20306.342	-53.387	10.692	-53.464	8.864	0
20306.467	-53.354	10.732	-53.444	8.905	0
20306.592	-53.320	10.772	-53.422	8.944	0
20306.717	-53.287	10.812	-53.396	8.982	0
20306.842	-53.254	10.852	-53.369	9.020	0
20306.967	-53.221	10.892	-53.340	9.058	0
20307.092	-53.188	10.932	-53.309	9.095	0
20307.217	-53.154	10.972	-53.277	9.133	0
20307.342	-53.121	11.012	-53.244	9.172	0
20307.467	-53.086	11.053	-53.208	9.211	0
20307.592	-53.043	11.098	-53.162	9.255	0
20307.717	-53.000	11.143	-53.115	9.298	0
20307.842	-52.957	11.189	-53.066	9.341	0
20307.967	-52.914	11.234	-53.016	9.385	0
20308.092	-52.828	11.249	-52.924	9.401	0
20308.217	-52.698	11.234	-52.786	9.386	0
20308.342	-52.670	11.278	-52.753	9.432	0
20308.467	-52.649	11.326	-52.728	9.484	0
20308.592	-52.629	11.374	-52.703	9.536	0
20308.717	-52.608	11.422	-52.678	9.588	0
20308.842	-52.587	11.471	-52.653	9.641	0
20308.967	-52.566	11.519	-52.629	9.695	0
20309.092	-52.545	11.567	-52.605	9.748	0
20309.217	-52.524	11.615	-52.580	9.803	0
20309.342	-52.503	11.663	-52.556	9.857	0
20309.467	-52.483	11.711	-52.531	9.913	0
20309.592	-52.462	11.759	-52.507	9.968	0
20309.717	-52.441	11.807	-52.482	10.024	0
20309.842	-52.420	11.855	-52.458	10.080	0
20309.967	-52.399	11.903	-52.433	10.136	0
20310.092	-52.378	11.951	-52.408	10.193	0
20310.217	-52.348	11.996	-52.373	10.246	0
20310.342	-52.316	12.039	-52.335	10.297	0
20310.467	-52.292	12.078	-52.306	10.344	0
20310.592	-52.268	12.116	-52.276	10.391	0
20310.717	-52.245	12.155	-52.246	10.437	0
20310.842	-52.222	12.202	-52.216	10.492	0
20310.967	-52.201	12.256	-52.186	10.553	0
20311.092	-52.179	12.310	-52.156	10.614	0
20311.217	-52.158	12.364	-52.124	10.674	0
20311.342	-52.137	12.418	-52.091	10.734	0
20311.467	-52.115	12.472	-52.058	10.793	0
20311.592	-52.094	12.526	-52.023	10.852	0
20311.717	-52.073	12.580	-51.987	10.911	0
20311.842	-52.068	12.633	-51.967	10.968	0
20311.967	-52.074	12.685	-51.958	11.023	0
20312.092	-52.038	12.698	-51.906	11.040	0
20312.217	-51.913	12.732	-51.761	11.078	0
20312.342	-51.919	12.780	-51.749	11.128	0
20312.467	-51.924	12.829	-51.737	11.179	0
20312.592	-51.930	12.877	-51.723	11.229	0
20312.717	-51.936	12.925	-51.709	11.279	0
20312.842	-51.941	12.973	-51.695	11.328	0
20312.967	-51.947	13.021	-51.679	11.378	0
20313.092	-51.953	13.069	-51.664	11.427	0
20313.217	-51.958	13.117	-51.647	11.476	0
20313.342	-51.964	13.165	-51.630	11.524	0
20313.467	-51.970	13.213	-51.613	11.573	0
20313.592	-51.975	13.261	-51.595	11.621	0
20313.717	-51.981	13.310	-51.578	11.669	0
20313.842	-51.987	13.358	-51.561	11.717	0
20313.967	-51.992	13.406	-51.544	11.764	0
20314.092	-51.994	13.457	-51.522	11.815	0
20314.217	-51.987	13.515	-51.493	11.872	0
20314.342	-51.980	13.573	-51.464	11.928	0
20314.467	-51.974	13.631	-51.436	11.984	0
20314.592	-51.967	13.689	-51.409	12.039	0
20314.717	-51.961	13.747	-51.382	12.093	0
20314.842	-51.954	13.805	-51.357	12.148	0
20314.967	-51.948	13.863	-51.331	12.202	0
20315.092	-51.941	13.921	-51.307	12.256	0
20315.217	-51.934	13.980	-51.283	12.309	0
20315.342	-51.927	14.038	-51.260	12.362	0
20315.467	-51.920	14.097	-51.238	12.415	0
20315.592	-51.913	14.155	-51.217	12.468	0
20315.717	-51.904	14.213	-51.194	12.520	0
20315.842	-51.878	14.272	-51.155	12.572	0
20315.967	-51.852	14.330	-51.115	12.623	0
20316.092	-51.826	14.388	-51.076	12.674	0
20316.217	-51.800	14.446	-51.038	12.725	0
20316.342	-51.774	14.504	-51.000	12.776	0
20316.467	-51.747	14.563	-50.962	12.827	0
20316.592	-51.721	14.621	-50.925	12.879	0
20316.717	-51.695	14.679	-50.889	12.931	0
20316.842	-51.669	14.737	-50.853	12.983	0
20316.967	-51.643	14.795	-50.818	13.035	0
20317.092	-51.617	14.854	-50.783	13.087	0
20317.217	-51.591	14.912	-50.748	13.140	0
20317.342	-51.568	14.966	-50.717	13.189	0
20317.467	-51.546	15.020	-50.687	13.238	0
20317.592	-51.524	15.073	-50.657	13.287	0
20317.717	-51.502	15.127	-50.628	13.337	0
20317.842	-51.477	15.185	-50.595	13.391	0
20317.967	-51.447	15.248	-50.559	13.452	0
20318.092	-51.418	15.312	-50.523	13.514	0
20318.217	-51.388	15.375	-50.488	13.577	0
20318.342	-51.342	15.435	-50.436	13.637	0
20318.467	-51.292	15.494	-50.381	13.697	0
20318.592	-51.241	15.552	-50.326	13.758	0
20318.717	-51.190	15.611	-50.272	13.820	0
20318.842	-51.140	15.670	-50.219	13.883	0
20318.967	-51.089	15.728	-50.167	13.948	0
20319.092	-51.038	15.787	-50.114	14.013	0
20319.217	-50.988	15.845	-50.062	14.078	0
20319.342	-50.961	15.918	-50.035	14.158	0
20319.467	-50.959	16.003	-50.033	14.249	0
20319.592	-50.971	16.039	-50.045	14.293	0
20319.717	-50.960	16.084	-50.032	14.345	0
20319.842	-50.895	16.148	-49.964	14.416	0
20319.967	-50.830	16.212	-49.895	14.486	0
20320.092	-50.765	16.276	-49.825	14.555	0
20320.217	-50.749	16.332	-49.804	14.616	0
20320.342	-50.741	16.387	-49.789	14.674	0
20320.467	-50.732	16.443	-49.774	14.733	0
20320.592	-50.693	16.492	-49.727	14.784	0
20320.717	-50.633	16.536	-49.657	14.829	0
20320.842	-50.603	16.596	-49.617	14.890	0
20320.967	-50.581	16.661	-49.584	14.953	0
20321.092	-50.559	16.725	-49.550	15.016	0
20321.217	-50.537	16.789	-49.516	15.078	0
20321.342	-50.515	16.853	-49.481	15.140	0
20321.467	-50.493	16.918	-49.446	15.201	0
20321.592	-50.471	16.982	-49.411	15.262	0
20321.717	-50.449	17.046	-49.375	15.322	0
20321.842	-50.427	17.110	-49.339	15.383	0
20321.967	-50.408	17.175	-49.306	15.443	0
20322.092	-50.416	17.241	-49.302	15.505	0
20322.217	-50.410	17.301	-49.284	15.561	0
20322.342	-50.347	17.338	-49.207	15.594	0
20322.467	-50.287	17.374	-49.134	15.626	0
20322.592	-50.232	17.410	-49.065	15.658	0
20322.717	-50.208	17.455	-49.029	15.700	0
20322.842	-50.185	17.500	-48.994	15.743	0
20322.967	-50.162	17.545	-48.960	15.785	0
20323.092	-50.142	17.603	-48.928	15.840	0
20323.217	-50.124	17.679	-48.899	15.914	0
20323.342	-50.106	17.755	-48.871	15.988	0
20323.467	-50.088	17.831	-48.844	16.061	0
20323.592	-50.070	17.907	-48.819	16.135	0
20323.717	-50.052	17.984	-48.796	16.208	0
20323.842	-50.034	18.060	-48.774	16.282	0
20323.967	-50.016	18.136	-48.755	16.355	0
20324.092	-49.988	18.212	-48.726	16.428	0
20324.217	-49.944	18.290	-48.685	16.503	0
20324.342	-49.884	18.349	-48.628	16.560	0
20324.467	-49.817	18.402	-48.566	16.611	0
20324.592	-49.763	18.451	-48.516	16.660	0
20324.717	-49.709	18.499	-48.470	16.710	0
20324.842	-49.656	18.548	-48.424	16.761	0
20324.967	-49.598	18.593	-48.374	16.810	0
20325.092	-49.534	18.637	-48.317	16.857	0
20325.217	-49.470	18.680	-48.260	16.906	0
20325.342	-49.406	18.723	-48.202	16.955	0
20325.467	-49.342	18.766	-48.143	17.004	0
20325.592	-49.286	18.803	-48.092	17.049	0
20325.717	-49.248	18.831	-48.057	17.083	0
20325.842	-49.209	18.858	-48.022	17.116	0
20325.967	-49.170	18.891	-47.986	17.154	0
20326.092	-49.132	18.950	-47.951	17.218	0
20326.217	-49.095	19.009	-47.914	17.281	0
20326.342	-49.057	19.068	-47.876	17.342	0
20326.467	-49.018	19.126	-47.835	17.402	0
20326.592	-48.977	19.185	-47.791	17.460	0
20326.717	-48.937	19.243	-47.746	17.516	0
20326.842	-48.896	19.301	-47.700	17.571	0
20326.967	-48.856	19.360	-47.653	17.625	0
20327.092	-48.815	19.418	-47.604	17.677	0
20327.217	-48.775	19.476	-47.555	17.728	0
20327.342	-48.735	19.527	-47.504	17.770	0
20327.467	-48.694	19.575	-47.453	17.808	0
20327.592	-48.654	19.623	-47.401	17.847	0
20327.717	-48.614	19.671	-47.347	17.885	0
20327.842	-48.574	19.719	-47.293	17.925	0
20327.967	-48.534	19.767	-47.237	17.966	0
20328.092	-48.493	19.816	-47.180	18.009	0
20328.217	-48.453	19.864	-47.123	18.052	0
20328.342	-48.413	19.912	-47.064	18.098	0
20328.467	-48.373	19.960	-47.006	18.145	0
20328.592	-48.317	20.034	-46.931	18.221	0
20328.717	-48.226	20.179	-46.821	18.369	0
20328.842	-48.220	20.222	-46.802	18.418	0
20328.967	-48.214	20.265	-46.784	18.466	0
20329.092	-48.200	20.299	-46.758	18.507	0
20329.217	-48.167	20.313	-46.714	18.527	0
20329.342	-48.200	20.324	-46.741	18.545	0
20329.467	-48.327	20.332	-46.867	18.559	0
20329.592	-48.206	20.408	-46.729	18.639	0
20329.717	-48.011	20.491	-46.518	18.731	0
20329.842	-47.954	20.511	-46.454	18.761	0
20329.967	-47.897	20.538	-46.391	18.800	0
20330.092	-47.840	20.571	-46.329	18.845	0
20330.217	-47.784	20.604	-46.268	18.889	0
20330.342	-47.728	20.638	-46.207	18.933	0
20330.467	-47.674	20.646	-46.150	18.951	0
20330.592	-47.621	20.653	-46.092	18.969	0
20330.717	-47.567	20.661	-46.034	18.986	0
20330.842	-47.576	20.692	-46.041	19.025	0
20330.967	-47.603	20.729	-46.068	19.070	0
20331.092	-47.516	20.791	-45.974	19.141	0
20331.217	-47.430	20.851	-45.882	19.209	0
20331.342	-47.376	20.896	-45.821	19.260	0
20331.467	-47.321	20.941	-45.759	19.310	0
20331.592	-47.266	20.985	-45.697	19.360	0
20331.717	-47.211	21.030	-45.634	19.408	0
20331.842	-47.180	21.081	-45.596	19.461	0
20331.967	-47.158	21.133	-45.566	19.515	0
20332.092	-47.125	21.180	-45.524	19.563	0
20332.217	-47.086	21.225	-45.476	19.607	0
20332.342	-47.063	21.282	-45.445	19.663	0
20332.467	-47.041	21.340	-45.414	19.719	0
20332.592	-47.019	21.398	-45.382	19.773	0
20332.717	-46.996	21.455	-45.351	19.826	0
20332.842	-46.974	21.513	-45.321	19.878	0
20332.967	-46.951	21.571	-45.291	19.928	0
20333.092	-46.921	21.629	-45.254	19.976	0
20333.217	-46.883	21.687	-45.210	20.023	0
20333.342	-46.846	21.745	-45.167	20.069	0
20333.467	-46.802	21.812	-45.118	20.121	0
20333.592	-46.738	21.904	-45.048	20.198	0
20333.717	-46.667	21.958	-44.971	20.235	0
20333.842	-46.594	21.996	-44.893	20.257	0
20333.967	-46.521	22.034	-44.815	20.282	0
20334.092	-46.448	22.073	-44.738	20.308	0
20334.217	-46.375	22.111	-44.661	20.336	0
20334.342	-46.302	22.150	-44.585	20.366	0
20334.467	-46.229	22.188	-44.509	20.399	0
20334.592	-46.133	22.270	-44.409	20.476	0
20334.717	-46.036	22.351	-44.309	20.556	0
20334.842	-45.939	22.433	-44.209	20.636	0
20334.967	-45.879	22.499	-44.147	20.701	0
20335.092	-45.905	22.527	-44.177	20.727	0
20335.217	-45.932	22.555	-44.206	20.753	0
20335.342	-45.954	22.584	-44.231	20.780	0
20335.467	-45.929	22.623	-44.205	20.816	0
20335.592	-45.911	22.670	-44.185	20.861	0
20335.717	-45.899	22.725	-44.170	20.913	0
20335.842	-45.870	22.782	-44.138	20.968	0
20335.967	-45.842	22.841	-44.105	21.024	0
20336.092	-45.818	22.906	-44.074	21.085	0
20336.217	-45.798	22.972	-44.046	21.148	0
20336.342	-45.781	23.039	-44.022	21.210	0
20336.467	-45.750	23.103	-43.980	21.270	0
20336.592	-45.714	23.167	-43.933	21.328	0
20336.717	-45.677	23.230	-43.885	21.386	0
20336.842	-45.641	23.293	-43.836	21.443	0
20336.967	-45.605	23.357	-43.788	21.500	0
20337.092	-45.569	23.420	-43.740	21.556	0
20337.217	-45.533	23.484	-43.693	21.612	0
20337.342	-45.497	23.547	-43.647	21.668	0
20337.467	-45.461	23.610	-43.602	21.724	0
20337.592	-45.425	23.674	-43.559	21.781	0
20337.717	-45.389	23.737	-43.517	21.839	0
20337.842	-45.357	23.800	-43.482	21.897	0
20337.967	-45.363	23.852	-43.490	21.945	0
20338.092	-45.327	23.890	-43.455	21.981	0
20338.217	-45.251	23.914	-43.377	22.004	0
20338.342	-45.175	23.939	-43.301	22.029	0
20338.467	-45.060	23.984	-43.185	22.075	0
20338.592	-44.888	24.059	-43.009	22.154	0
20338.717	-44.773	24.130	-42.895	22.230	0
20338.842	-44.810	24.189	-42.945	22.295	0
20338.967	-44.846	24.249	-42.995	22.361	0
20339.092	-44.883	24.308	-43.044	22.426	0
20339.217	-44.919	24.367	-43.092	22.490	0
20339.342	-44.918	24.414	-43.099	22.543	0
20339.467	-44.879	24.447	-43.063	22.582	0
20339.592	-44.847	24.485	-43.035	22.625	0
20339.717	-44.823	24.528	-43.015	22.672	0
20339.842	-44.799	24.570	-42.995	22.719	0
20339.967	-44.775	24.612	-42.974	22.765	0
20340.092	-44.751	24.655	-42.953	22.810	0
20340.217	-44.727	24.697	-42.931	22.855	0
20340.342	-44.703	24.740	-42.909	22.899	0
20340.467	-44.679	24.782	-42.886	22.943	0
20340.592	-44.676	24.811	-42.885	22.971	0
20340.717	-44.686	24.831	-42.899	22.991	0
20340.842	-44.695	24.851	-42.913	23.011	0
20340.967	-44.705	24.871	-42.926	23.031	0
20341.092	-44.678	24.925	-42.901	23.084	0
20341.217	-44.628	25.000	-42.849	23.158	0
20341.342	-44.577	25.075	-42.797	23.230	0
20341.467	-44.526	25.151	-42.745	23.301	0
20341.592	-44.476	25.226	-42.694	23.372	0
20341.717	-44.425	25.301	-42.644	23.442	0
20341.842	-44.375	25.376	-42.594	23.512	0
20341.967	-44.324	25.452	-42.545	23.582	0
20342.092	-44.273	25.527	-42.496	23.653	0
20342.217	-44.223	25.602	-42.447	23.724	0
20342.342	-44.172	25.677	-42.398	23.795	0
20342.467	-44.122	25.753	-42.349	23.867	0
20342.592	-44.071	25.828	-42.298	23.939	0
20342.717	-44.020	25.903	-42.247	24.011	0
20342.842	-43.970	25.978	-42.194	24.083	0
20342.967	-43.955	26.037	-42.181	24.138	0
20343.092	-43.960	26.086	-42.188	24.183	0
20343.217	-43.964	26.135	-42.196	24.229	0
20343.342	-43.969	26.184	-42.205	24.274	0
20343.467	-43.973	26.234	-42.214	24.319	0
20343.592	-43.978	26.283	-42.223	24.363	0
20343.717	-43.932	26.327	-42.177	24.403	0
20343.842	-43.844	26.368	-42.085	24.440	0
20343.967	-43.756	26.408	-41.995	24.477	0
20344.092	-43.669	26.449	-41.905	24.515	0
20344.217	-43.581	26.489	-41.816	24.553	0
20344.342	-43.493	26.530	-41.728	24.593	0
20344.467	-43.405	26.571	-41.642	24.634	0
20344.592	-43.318	26.611	-41.556	24.677	0
20344.717	-43.230	26.652	-41.473	24.722	0
20344.842	-43.142	26.692	-41.391	24.768	0
20344.967	-43.054	26.733	-41.310	24.816	0
20345.092	-42.967	26.773	-41.230	24.864	0
20345.217	-42.879	26.814	-41.151	24.913	0
20345.342	-42.810	26.860	-41.092	24.968	0
20345.467	-42.784	26.920	-41.081	25.035	0
20345.592	-42.759	26.979	-41.069	25.101	0
20345.717	-42.733	27.039	-41.055	25.165	0
20345.842	-42.707	27.098	-41.040	25.228	0
20345.967	-42.681	27.158	-41.024	25.289	0
20346.092	-42.656	27.218	-41.006	25.350	0
20346.217	-42.630	27.277	-40.985	25.409	0
20346.342	-42.604	27.337	-40.962	25.468	0
20346.467	-42.579	27.396	-40.937	25.526	0
20346.592	-42.553	27.456	-40.910	25.583	0
20346.717	-42.527	27.515	-40.881	25.640	0
20346.842	-42.501	27.575	-40.851	25.696	0
20346.967	-42.476	27.635	-40.820	25.752	0
20347.092	-42.450	27.694	-40.787	25.807	0
20347.217	-42.424	27.754	-40.754	25.862	0
20347.342	-42.398	27.813	-40.719	25.917	0
20347.467	-42.373	27.873	-40.683	25.972	0
20347.592	-42.347	27.932	-40.648	26.027	0
20347.717	-42.321	27.992	-40.611	26.083	0
20347.842	-42.296	28.052	-40.574	26.138	0
20347.967	-42.270	28.111	-40.537	26.193	0
20348.092	-42.244	28.171	-40.499	26.248	0
20348.217	-42.218	28.230	-40.462	26.302	0
20348.342	-42.193	28.290	-40.424	26.357	0
20348.467	-42.167	28.349	-40.386	26.412	0
20348.592	-42.141	28.409	-40.349	26.467	0
20348.717	-42.115	28.468	-40.312	26.522	0
20348.842	-42.090	28.528	-40.275	26.577	0
20348.967	-42.064	28.588	-40.239	26.633	0
20349.092	-42.038	28.647	-40.204	26.688	0
20349.217	-42.013	28.707	-40.169	26.744	0
20349.342	-41.987	28.766	-40.135	26.801	0
20349.467	-41.961	28.826	-40.102	26.858	0
20349.592	-41.935	28.885	-40.069	26.916	0
20349.717	-41.910	28.945	-40.037	26.974	0
20349.842	-41.884	29.005	-40.006	27.032	0
20349.967	-41.858	29.064	-39.976	27.091	0
20350.092	-41.832	29.124	-39.946	27.151	0
20350.217	-41.807	29.183	-39.916	27.211	0
20350.342	-41.781	29.243	-39.886	27.271	0
20350.467	-41.755	29.302	-39.856	27.332	0
20350.592	-41.730	29.362	-39.827	27.393	0
20350.717	-41.704	29.421	-39.796	27.453	0
20350.842	-41.678	29.481	-39.766	27.514	0
20350.967	-41.652	29.541	-39.734	27.574	0
20351.092	-41.627	29.600	-39.702	27.634	0
20351.217	-41.601	29.660	-39.669	27.693	0
20351.342	-41.575	29.719	-39.635	27.752	0
20351.467	-41.549	29.779	-39.599	27.811	0
20351.592	-41.516	29.834	-39.553	27.864	0
20351.717	-41.469	29.881	-39.492	27.909	0
20351.842	-41.443	29.943	-39.452	27.969	0
20351.967	-41.453	30.032	-39.453	28.054	0
20352.092	-41.464	30.121	-39.454	28.139	0
20352.217	-41.394	30.175	-39.364	28.189	0
20352.342	-41.332	30.212	-39.282	28.222	0
20352.467	-41.331	30.269	-39.270	28.274	0
20352.592	-41.330	30.326	-39.259	28.327	0
20352.717	-41.325	30.409	-39.243	28.405	0
20352.842	-41.289	30.520	-39.194	28.512	0
20352.967	-41.214	30.625	-39.103	28.614	0
20353.092	-41.167	30.707	-39.046	28.694	0
20353.217	-41.225	30.696	-39.112	28.683	0
20353.342	-41.164	30.720	-39.041	28.706	0
20353.467	-41.076	30.752	-38.939	28.738	0
20353.592	-40.989	30.784	-38.839	28.771	0
20353.717	-40.910	30.819	-38.749	28.809	0
20353.842	-40.930	30.887	-38.773	28.879	0
20353.967	-40.950	30.954	-38.797	28.950	0
20354.092	-40.971	31.021	-38.822	29.021	0
20354.217	-40.991	31.088	-38.846	29.091	0
20354.342	-41.012	31.156	-38.869	29.161	0
20354.467	-41.032	31.223	-38.892	29.232	0
20354.592	-41.052	31.290	-38.915	29.302	0
20354.717	-41.060	31.357	-38.922	29.372	0
20354.842	-40.991	31.422	-38.841	29.441	0
20354.967	-40.921	31.487	-38.759	29.510	0
20355.092	-40.852	31.553	-38.677	29.580	0
20355.217	-40.821	31.615	-38.639	29.648	0
20355.342	-40.792	31.659	-38.603	29.697	0
20355.467	-40.685	31.679	-38.478	29.723	0
