Tag:	57122
Reference:	tu21_122_05
Coast Distance (km): 	30.0
Estimation Time Delay (days): 	0.0

CNES Day	Lon	Lat	LonCor	LatCor	Delay
20516.136	9.300	0.294	9.300	0.294	0
20516.261	9.230	0.324	8.261	-0.647	0
20516.386	9.160	0.354	8.191	-0.617	0
20516.511	9.091	0.384	8.121	-0.587	0
20516.636	9.040	0.363	8.070	-0.608	0
20516.761	8.995	0.326	8.031	-0.647	0
20516.886	8.949	0.289	7.991	-0.685	0
20517.011	8.904	0.252	7.950	-0.724	0
20517.136	8.859	0.215	7.908	-0.763	0
20517.261	8.814	0.178	7.866	-0.801	0
20517.386	8.769	0.141	7.823	-0.840	0
20517.511	8.724	0.104	7.781	-0.878	0
20517.636	8.672	0.062	7.730	-0.922	0
20517.761	8.601	0.005	7.661	-0.980	0
20517.886	8.552	-0.044	7.614	-1.030	0
20518.011	8.523	-0.087	7.586	-1.074	0
20518.136	8.494	-0.129	7.559	-1.117	0
20518.261	8.465	-0.171	7.531	-1.160	0
20518.386	8.437	-0.214	7.502	-1.203	0
20518.511	8.408	-0.256	7.474	-1.246	0
20518.636	8.377	-0.299	7.444	-1.289	0
20518.761	8.311	-0.354	7.377	-1.344	0
20518.886	8.244	-0.408	7.309	-1.399	0
20519.011	8.177	-0.463	7.241	-1.454	0
20519.136	8.116	-0.514	7.178	-1.505	0
20519.261	8.058	-0.562	7.118	-1.554	0
20519.386	8.000	-0.611	7.057	-1.603	0
20519.511	7.942	-0.660	6.996	-1.651	0
20519.636	7.885	-0.708	6.935	-1.700	0
20519.761	7.827	-0.757	6.873	-1.749	0
20519.886	7.773	-0.805	6.814	-1.799	0
20520.011	7.758	-0.855	6.793	-1.850	0
20520.136	7.743	-0.904	6.772	-1.902	0
20520.261	7.729	-0.953	6.751	-1.955	0
20520.386	7.700	-1.015	6.714	-2.020	0
20520.511	7.650	-1.092	6.656	-2.102	0
20520.636	7.600	-1.135	6.596	-2.148	0
20520.761	7.562	-1.176	6.549	-2.192	0
20520.886	7.554	-1.211	6.533	-2.229	0
20521.011	7.547	-1.247	6.518	-2.266	0
20521.136	7.539	-1.282	6.504	-2.301	0
20521.261	7.532	-1.317	6.490	-2.336	0
20521.386	7.515	-1.354	6.466	-2.372	0
20521.511	7.479	-1.395	6.425	-2.411	0
20521.636	7.444	-1.435	6.383	-2.449	0
20521.761	7.408	-1.475	6.341	-2.487	0
20521.886	7.373	-1.515	6.298	-2.525	0
20522.011	7.337	-1.555	6.255	-2.563	0
20522.136	7.301	-1.596	6.212	-2.600	0
20522.261	7.276	-1.631	6.179	-2.633	0
20522.386	7.255	-1.665	6.149	-2.664	0
20522.511	7.234	-1.699	6.120	-2.695	0
20522.636	7.213	-1.732	6.089	-2.726	0
20522.761	7.192	-1.766	6.059	-2.757	0
20522.886	7.171	-1.800	6.028	-2.788	0
20523.011	7.150	-1.834	5.997	-2.819	0
20523.136	7.102	-1.876	5.938	-2.858	0
20523.261	7.050	-1.920	5.876	-2.899	0
20523.386	6.999	-1.963	5.812	-2.940	0
20523.511	6.948	-2.007	5.748	-2.980	0
20523.636	6.901	-2.049	5.688	-3.020	0
20523.761	6.934	-2.068	5.707	-3.035	0
20523.886	6.950	-2.091	5.709	-3.056	0
20524.011	6.940	-2.124	5.684	-3.085	0
20524.136	6.931	-2.156	5.659	-3.114	0
20524.261	6.921	-2.188	5.633	-3.143	0
20524.386	6.911	-2.220	5.606	-3.171	0
20524.511	6.901	-2.252	5.578	-3.200	0
20524.636	6.891	-2.284	5.549	-3.228	0
20524.761	6.881	-2.317	5.520	-3.256	0
20524.886	6.871	-2.349	5.491	-3.284	0
20525.011	6.862	-2.381	5.461	-3.312	0
20525.136	6.851	-2.420	5.431	-3.346	0
20525.261	6.840	-2.467	5.400	-3.389	0
20525.386	6.829	-2.514	5.369	-3.431	0
20525.511	6.818	-2.562	5.337	-3.474	0
20525.636	6.807	-2.609	5.306	-3.516	0
20525.761	6.797	-2.654	5.275	-3.555	0
20525.886	6.788	-2.694	5.245	-3.590	0
20526.011	6.780	-2.735	5.214	-3.624	0
20526.136	6.771	-2.776	5.183	-3.659	0
20526.261	6.763	-2.816	5.152	-3.693	0
20526.386	6.754	-2.858	5.120	-3.727	0
20526.511	6.746	-2.900	5.087	-3.763	0
20526.636	6.737	-2.943	5.054	-3.799	0
20526.761	6.728	-2.986	5.022	-3.833	0
20526.886	6.720	-3.029	4.992	-3.867	0
20527.011	6.711	-3.072	4.962	-3.899	0
20527.136	6.702	-3.115	4.935	-3.929	0
20527.261	6.694	-3.158	4.909	-3.958	0
20527.386	6.685	-3.201	4.885	-3.986	0
20527.511	6.676	-3.244	4.862	-4.012	0
20527.636	6.668	-3.287	4.842	-4.037	0
20527.761	6.659	-3.330	4.821	-4.064	0
20527.886	6.650	-3.373	4.798	-4.093	0
20528.011	6.642	-3.415	4.774	-4.123	0
20528.136	6.633	-3.458	4.749	-4.156	0
20528.261	6.627	-3.504	4.725	-4.194	0
20528.386	6.623	-3.553	4.703	-4.237	0
20528.511	6.619	-3.602	4.680	-4.284	0
20528.636	6.616	-3.651	4.656	-4.333	0
20528.761	6.612	-3.700	4.631	-4.382	0
20528.886	6.609	-3.749	4.606	-4.430	0
20529.011	6.605	-3.798	4.581	-4.479	0
20529.136	6.602	-3.847	4.554	-4.526	0
20529.261	6.598	-3.896	4.528	-4.573	0
20529.386	6.587	-3.903	4.493	-4.577	0
20529.511	6.576	-3.909	4.457	-4.580	0
20529.636	6.565	-3.915	4.421	-4.582	0
20529.761	6.554	-3.921	4.385	-4.585	0
20529.886	6.543	-3.928	4.349	-4.588	0
20530.011	6.532	-3.934	4.313	-4.592	0
20530.136	6.539	-3.944	4.295	-4.599	0
20530.261	6.652	-3.979	4.384	-4.633	0
20530.386	6.690	-4.020	4.398	-4.670	0
20530.511	6.667	-4.064	4.351	-4.710	0
20530.636	6.644	-4.109	4.304	-4.752	0
20530.761	6.622	-4.153	4.257	-4.793	0
20530.886	6.599	-4.197	4.211	-4.834	0
20531.011	6.574	-4.225	4.162	-4.858	0
20531.136	6.547	-4.239	4.112	-4.870	0
20531.261	6.521	-4.254	4.063	-4.882	0
20531.386	6.495	-4.269	4.013	-4.893	0
20531.511	6.468	-4.284	3.964	-4.905	0
20531.636	6.442	-4.298	3.914	-4.917	0
20531.761	6.415	-4.313	3.865	-4.929	0
20531.886	6.389	-4.328	3.816	-4.941	0
20532.011	6.363	-4.343	3.766	-4.954	0
20532.136	6.336	-4.357	3.717	-4.966	0
20532.261	6.369	-4.382	3.727	-4.989	0
20532.386	6.477	-4.419	3.813	-5.025	0
20532.511	6.452	-4.449	3.766	-5.050	0
20532.636	6.426	-4.472	3.719	-5.070	0
20532.761	6.401	-4.484	3.672	-5.080	0
20532.886	6.381	-4.504	3.632	-5.098	0
20533.011	6.368	-4.531	3.599	-5.124	0
20533.136	6.356	-4.558	3.568	-5.150	0
20533.261	6.343	-4.585	3.537	-5.177	0
20533.386	6.330	-4.612	3.506	-5.205	0
20533.511	6.305	-4.648	3.464	-5.242	0
20533.636	6.272	-4.691	3.414	-5.288	0
20533.761	6.270	-4.721	3.396	-5.319	0
20533.886	6.274	-4.746	3.383	-5.344	0
20534.011	6.277	-4.770	3.370	-5.369	0
20534.136	6.281	-4.795	3.356	-5.393	0
20534.261	6.283	-4.818	3.340	-5.415	0
20534.386	6.268	-4.832	3.307	-5.427	0
20534.511	6.254	-4.845	3.274	-5.439	0
20534.636	6.240	-4.859	3.240	-5.451	0
20534.761	6.232	-4.879	3.213	-5.469	0
20534.886	6.229	-4.906	3.191	-5.495	0
20535.011	6.211	-4.936	3.153	-5.524	0
20535.136	6.205	-4.966	3.128	-5.553	0
20535.261	6.216	-4.996	3.120	-5.583	0
20535.386	6.228	-5.026	3.113	-5.612	0
20535.511	6.239	-5.055	3.105	-5.642	0
20535.636	6.251	-5.085	3.098	-5.671	0
20535.761	6.262	-5.115	3.092	-5.700	0
20535.886	6.274	-5.145	3.086	-5.728	0
20536.011	6.244	-5.194	3.041	-5.774	0
20536.136	6.198	-5.251	2.980	-5.828	0
20536.261	6.152	-5.307	2.920	-5.883	0
20536.386	6.120	-5.375	2.874	-5.949	0
20536.511	6.108	-5.459	2.849	-6.031	0
20536.636	6.085	-5.502	2.816	-6.070	0
20536.761	6.056	-5.518	2.776	-6.083	0
20536.886	6.027	-5.535	2.737	-6.097	0
20537.011	6.007	-5.548	2.706	-6.107	0
20537.136	6.096	-5.507	2.785	-6.064	0
20537.261	6.127	-5.504	2.806	-6.056	0
20537.386	6.107	-5.535	2.776	-6.082	0
20537.511	6.087	-5.565	2.746	-6.107	0
20537.636	6.055	-5.602	2.704	-6.139	0
20537.761	5.997	-5.653	2.637	-6.185	0
20537.886	5.948	-5.699	2.578	-6.226	0
20538.011	5.919	-5.731	2.540	-6.254	0
20538.136	5.889	-5.763	2.502	-6.282	0
20538.261	5.860	-5.795	2.464	-6.310	0
20538.386	5.830	-5.827	2.426	-6.339	0
20538.511	5.801	-5.859	2.388	-6.367	0
20538.636	5.771	-5.891	2.350	-6.396	0
20538.761	5.742	-5.923	2.312	-6.425	0
20538.886	5.725	-5.962	2.287	-6.461	0
20539.011	5.733	-6.017	2.287	-6.513	0
20539.136	5.730	-6.060	2.277	-6.551	0
20539.261	5.714	-6.087	2.254	-6.573	0
20539.386	5.698	-6.115	2.231	-6.595	0
20539.511	5.681	-6.142	2.208	-6.616	0
20539.636	5.665	-6.170	2.185	-6.638	0
20539.761	5.649	-6.197	2.162	-6.659	0
20539.886	5.633	-6.225	2.140	-6.679	0
20540.011	5.616	-6.252	2.117	-6.700	0
20540.136	5.600	-6.280	2.094	-6.719	0
20540.261	5.584	-6.307	2.072	-6.738	0
20540.386	5.567	-6.335	2.049	-6.757	0
20540.511	5.551	-6.362	2.027	-6.775	0
20540.636	5.535	-6.390	2.005	-6.793	0
20540.761	5.518	-6.417	1.983	-6.810	0
20540.886	5.502	-6.445	1.961	-6.827	0
20541.011	5.486	-6.472	1.940	-6.843	0
20541.136	5.469	-6.501	1.919	-6.860	0
20541.261	5.442	-6.545	1.888	-6.893	0
20541.386	5.415	-6.590	1.857	-6.925	0
20541.511	5.388	-6.635	1.828	-6.958	0
20541.636	5.354	-6.680	1.792	-6.991	0
20541.761	5.311	-6.728	1.748	-7.025	0
20541.886	5.268	-6.775	1.706	-7.060	0
20542.011	5.225	-6.823	1.665	-7.096	0
20542.136	5.181	-6.870	1.624	-7.132	0
20542.261	5.138	-6.917	1.585	-7.170	0
20542.386	5.095	-6.965	1.547	-7.208	0
20542.511	5.078	-6.989	1.537	-7.223	0
20542.636	5.077	-7.000	1.543	-7.226	0
20542.761	5.076	-7.011	1.549	-7.229	0
20542.886	5.074	-7.021	1.556	-7.232	0
20543.011	5.073	-7.032	1.563	-7.235	0
20543.136	5.072	-7.043	1.570	-7.238	0
20543.261	5.071	-7.054	1.577	-7.242	0
20543.386	5.069	-7.065	1.585	-7.245	0
20543.511	5.068	-7.075	1.593	-7.249	0
20543.636	5.067	-7.086	1.602	-7.254	0
20543.761	5.066	-7.097	1.610	-7.258	0
20543.886	5.064	-7.108	1.618	-7.263	0
20544.011	5.063	-7.119	1.626	-7.268	0
20544.136	5.054	-7.131	1.626	-7.274	0
20544.261	5.019	-7.148	1.600	-7.286	0
20544.386	4.985	-7.165	1.575	-7.298	0
20544.511	4.950	-7.182	1.550	-7.311	0
20544.636	4.915	-7.200	1.525	-7.324	0
20544.761	4.881	-7.217	1.501	-7.338	0
20544.886	4.846	-7.234	1.477	-7.353	0
20545.011	4.811	-7.251	1.453	-7.369	0
20545.136	4.777	-7.268	1.430	-7.386	0
20545.261	4.742	-7.285	1.408	-7.404	0
20545.386	4.707	-7.302	1.386	-7.422	0
20545.511	4.673	-7.320	1.365	-7.441	0
20545.636	4.638	-7.337	1.345	-7.461	0
20545.761	4.604	-7.354	1.325	-7.481	0
20545.886	4.569	-7.371	1.305	-7.501	0
20546.011	4.534	-7.388	1.285	-7.521	0
20546.136	4.500	-7.405	1.266	-7.542	0
20546.261	4.465	-7.422	1.247	-7.562	0
20546.386	4.430	-7.440	1.228	-7.583	0
20546.511	4.396	-7.457	1.210	-7.603	0
20546.636	4.361	-7.474	1.191	-7.624	0
20546.761	4.326	-7.491	1.173	-7.645	0
20546.886	4.292	-7.508	1.154	-7.666	0
20547.011	4.257	-7.525	1.136	-7.686	0
20547.136	4.222	-7.543	1.117	-7.707	0
20547.261	4.188	-7.560	1.099	-7.728	0
20547.386	4.153	-7.577	1.080	-7.749	0
20547.511	4.118	-7.594	1.061	-7.770	0
20547.636	4.084	-7.611	1.042	-7.790	0
20547.761	4.049	-7.628	1.023	-7.811	0
20547.886	4.015	-7.645	1.003	-7.831	0
20548.011	3.980	-7.663	0.984	-7.852	0
20548.136	3.945	-7.680	0.964	-7.872	0
20548.261	3.911	-7.697	0.944	-7.892	0
20548.386	3.876	-7.714	0.923	-7.912	0
20548.511	3.841	-7.731	0.902	-7.932	0
20548.636	3.807	-7.748	0.881	-7.952	0
20548.761	3.772	-7.765	0.859	-7.973	0
20548.886	3.737	-7.783	0.836	-7.993	0
20549.011	3.703	-7.800	0.813	-8.013	0
20549.136	3.668	-7.817	0.790	-8.033	0
20549.261	3.633	-7.834	0.766	-8.053	0
20549.386	3.599	-7.851	0.741	-8.073	0
20549.511	3.564	-7.868	0.716	-8.094	0
20549.636	3.529	-7.885	0.690	-8.114	0
20549.761	3.495	-7.903	0.664	-8.135	0
20549.886	3.460	-7.920	0.638	-8.155	0
20550.011	3.426	-7.937	0.611	-8.176	0
20550.136	3.391	-7.954	0.585	-8.197	0
20550.261	3.356	-7.971	0.557	-8.218	0
20550.386	3.322	-7.988	0.530	-8.239	0
20550.511	3.287	-8.005	0.502	-8.260	0
20550.636	3.252	-8.023	0.475	-8.282	0
20550.761	3.218	-8.040	0.446	-8.303	0
20550.886	3.183	-8.057	0.417	-8.324	0
20551.011	3.148	-8.074	0.388	-8.346	0
20551.136	3.114	-8.091	0.357	-8.367	0
20551.261	3.079	-8.108	0.327	-8.388	0
20551.386	3.044	-8.125	0.295	-8.409	0
20551.511	3.010	-8.143	0.263	-8.430	0
20551.636	2.975	-8.160	0.231	-8.451	0
20551.761	2.940	-8.177	0.197	-8.471	0
20551.886	2.906	-8.194	0.162	-8.492	0
20552.011	2.871	-8.211	0.127	-8.512	0
20552.136	2.837	-8.228	0.090	-8.531	0
20552.261	2.802	-8.246	0.052	-8.550	0
20552.386	2.767	-8.263	0.014	-8.569	0
20552.511	2.733	-8.280	-0.026	-8.588	0
20552.636	2.698	-8.297	-0.066	-8.606	0
20552.761	2.663	-8.314	-0.107	-8.624	0
20552.886	2.629	-8.331	-0.149	-8.641	0
20553.011	2.594	-8.348	-0.191	-8.659	0
20553.136	2.559	-8.366	-0.234	-8.676	0
20553.261	2.525	-8.383	-0.277	-8.694	0
20553.386	2.490	-8.400	-0.321	-8.711	0
20553.511	2.455	-8.417	-0.365	-8.728	0
20553.636	2.421	-8.434	-0.409	-8.745	0
20553.761	2.386	-8.451	-0.454	-8.761	0
20553.886	2.351	-8.468	-0.498	-8.778	0
20554.011	2.317	-8.486	-0.542	-8.795	0
20554.136	2.282	-8.503	-0.586	-8.811	0
20554.261	2.248	-8.520	-0.630	-8.828	0
20554.386	2.213	-8.537	-0.675	-8.844	0
20554.511	2.178	-8.554	-0.720	-8.861	0
20554.636	2.144	-8.571	-0.765	-8.877	0
20554.761	2.113	-8.598	-0.806	-8.903	0
20554.886	2.084	-8.633	-0.845	-8.936	0
20555.011	2.113	-8.718	-0.826	-9.020	0
20555.136	2.084	-8.742	-0.864	-9.041	0
20555.261	2.182	-8.792	-0.775	-9.089	0
20555.386	2.087	-8.790	-0.879	-9.086	0
20555.511	2.046	-8.806	-0.928	-9.099	0
20555.636	2.031	-8.835	-0.951	-9.125	0
20555.761	2.015	-8.866	-0.975	-9.152	0
20555.886	1.998	-8.896	-0.997	-9.178	0
20556.011	1.982	-8.927	-1.018	-9.205	0
20556.136	1.966	-8.957	-1.039	-9.231	0
20556.261	1.941	-8.973	-1.069	-9.241	0
20556.386	1.914	-8.987	-1.100	-9.250	0
20556.511	1.888	-9.001	-1.130	-9.259	0
20556.636	1.861	-9.015	-1.160	-9.267	0
20556.761	1.835	-9.029	-1.190	-9.275	0
20556.886	1.808	-9.043	-1.220	-9.282	0
20557.011	1.782	-9.057	-1.250	-9.289	0
20557.136	1.755	-9.072	-1.280	-9.296	0
20557.261	1.729	-9.086	-1.310	-9.302	0
20557.386	1.702	-9.100	-1.340	-9.307	0
20557.511	1.676	-9.114	-1.371	-9.312	0
20557.636	1.649	-9.128	-1.401	-9.316	0
20557.761	1.623	-9.142	-1.431	-9.321	0
20557.886	1.596	-9.156	-1.461	-9.325	0
20558.011	1.570	-9.170	-1.490	-9.329	0
20558.136	1.543	-9.184	-1.520	-9.332	0
20558.261	1.517	-9.198	-1.549	-9.336	0
20558.386	1.490	-9.212	-1.578	-9.339	0
20558.511	1.464	-9.227	-1.606	-9.342	0
20558.636	1.437	-9.241	-1.634	-9.345	0
20558.761	1.411	-9.255	-1.662	-9.348	0
20558.886	1.384	-9.269	-1.689	-9.351	0
20559.011	1.358	-9.283	-1.716	-9.353	0
20559.136	1.331	-9.297	-1.742	-9.356	0
20559.261	1.305	-9.311	-1.768	-9.359	0
20559.386	1.278	-9.325	-1.793	-9.361	0
20559.511	1.252	-9.339	-1.818	-9.365	0
20559.636	1.225	-9.353	-1.843	-9.368	0
20559.761	1.198	-9.368	-1.868	-9.371	0
20559.886	1.172	-9.382	-1.893	-9.375	0
20560.011	1.145	-9.396	-1.918	-9.378	0
20560.136	1.119	-9.410	-1.944	-9.382	0
20560.261	1.092	-9.424	-1.969	-9.385	0
20560.386	1.066	-9.438	-1.995	-9.389	0
20560.511	1.039	-9.452	-2.020	-9.392	0
20560.636	1.013	-9.466	-2.046	-9.396	0
20560.761	0.986	-9.480	-2.072	-9.399	0
20560.886	0.960	-9.494	-2.099	-9.401	0
20561.011	0.933	-9.508	-2.125	-9.404	0
20561.136	0.907	-9.523	-2.152	-9.406	0
20561.261	0.880	-9.537	-2.179	-9.408	0
20561.386	0.854	-9.551	-2.206	-9.411	0
20561.511	0.827	-9.565	-2.233	-9.413	0
20561.636	0.801	-9.579	-2.260	-9.415	0
20561.761	0.774	-9.593	-2.288	-9.417	0
20561.886	0.748	-9.607	-2.315	-9.419	0
20562.011	0.721	-9.621	-2.342	-9.422	0
20562.136	0.695	-9.635	-2.370	-9.424	0
20562.261	0.668	-9.649	-2.397	-9.426	0
20562.386	0.642	-9.663	-2.424	-9.429	0
20562.511	0.615	-9.678	-2.451	-9.432	0
20562.636	0.589	-9.692	-2.477	-9.435	0
20562.761	0.562	-9.706	-2.504	-9.439	0
20562.886	0.536	-9.720	-2.530	-9.443	0
20563.011	0.509	-9.734	-2.556	-9.448	0
20563.136	0.483	-9.748	-2.582	-9.453	0
20563.261	0.456	-9.762	-2.608	-9.459	0
20563.386	0.430	-9.776	-2.633	-9.465	0
20563.511	0.403	-9.790	-2.659	-9.471	0
20563.636	0.377	-9.804	-2.684	-9.478	0
20563.761	0.350	-9.819	-2.708	-9.486	0
20563.886	0.324	-9.833	-2.733	-9.494	0
20564.011	0.297	-9.847	-2.757	-9.502	0
20564.136	0.271	-9.861	-2.781	-9.511	0
20564.261	0.244	-9.875	-2.805	-9.520	0
20564.386	0.218	-9.889	-2.829	-9.530	0
20564.511	0.191	-9.903	-2.853	-9.540	0
20564.636	0.165	-9.917	-2.877	-9.550	0
20564.761	0.138	-9.931	-2.900	-9.561	0
20564.886	0.112	-9.945	-2.924	-9.572	0
20565.011	0.085	-9.959	-2.948	-9.583	0
20565.136	0.059	-9.974	-2.972	-9.594	0
20565.261	0.032	-9.988	-2.997	-9.606	0
20565.386	0.006	-10.002	-3.021	-9.618	0
20565.511	-0.021	-10.016	-3.045	-9.630	0
20565.636	-0.047	-10.030	-3.069	-9.642	0
20565.761	-0.074	-10.044	-3.093	-9.654	0
20565.886	-0.100	-10.058	-3.117	-9.666	0
20566.011	-0.127	-10.072	-3.142	-9.678	0
20566.136	-0.153	-10.086	-3.166	-9.690	0
20566.261	-0.180	-10.100	-3.190	-9.702	0
20566.386	-0.206	-10.114	-3.214	-9.714	0
20566.511	-0.233	-10.129	-3.238	-9.726	0
20566.636	-0.259	-10.143	-3.262	-9.738	0
20566.761	-0.286	-10.157	-3.286	-9.750	0
20566.886	-0.312	-10.171	-3.311	-9.762	0
20567.011	-0.339	-10.185	-3.335	-9.774	0
20567.136	-0.365	-10.199	-3.358	-9.791	0
20567.261	-0.392	-10.213	-3.381	-9.807	0
20567.386	-0.419	-10.227	-3.404	-9.824	0
20567.511	-0.445	-10.241	-3.427	-9.842	0
20567.636	-0.472	-10.255	-3.451	-9.860	0
20567.761	-0.498	-10.269	-3.474	-9.878	0
20567.886	-0.525	-10.284	-3.498	-9.897	0
20568.011	-0.551	-10.298	-3.522	-9.915	0
20568.136	-0.578	-10.312	-3.546	-9.934	0
20568.261	-0.604	-10.326	-3.570	-9.953	0
20568.386	-0.631	-10.340	-3.594	-9.973	0
20568.511	-0.657	-10.354	-3.619	-9.993	0
20568.636	-0.684	-10.368	-3.643	-10.013	0
20568.761	-0.710	-10.382	-3.668	-10.033	0
20568.886	-0.737	-10.396	-3.694	-10.053	0
20569.011	-0.763	-10.410	-3.719	-10.073	0
20569.136	-0.790	-10.425	-3.745	-10.093	0
20569.261	-0.816	-10.439	-3.771	-10.113	0
20569.386	-0.843	-10.453	-3.798	-10.133	0
20569.511	-0.869	-10.467	-3.825	-10.152	0
20569.636	-0.896	-10.481	-3.852	-10.172	0
20569.761	-0.922	-10.495	-3.879	-10.192	0
20569.886	-0.949	-10.509	-3.905	-10.212	0
20570.011	-0.975	-10.523	-3.932	-10.232	0
20570.136	-1.002	-10.537	-3.958	-10.252	0
20570.261	-1.028	-10.551	-3.984	-10.271	0
20570.386	-1.055	-10.565	-4.010	-10.291	0
20570.511	-1.081	-10.580	-4.036	-10.311	0
20570.636	-1.108	-10.594	-4.061	-10.330	0
20570.761	-1.134	-10.608	-4.086	-10.350	0
20570.886	-1.161	-10.622	-4.110	-10.370	0
20571.011	-1.187	-10.636	-4.134	-10.390	0
20571.136	-1.214	-10.650	-4.157	-10.410	0
20571.261	-1.240	-10.664	-4.180	-10.430	0
20571.386	-1.267	-10.678	-4.203	-10.450	0
20571.511	-1.293	-10.692	-4.225	-10.471	0
20571.636	-1.320	-10.706	-4.246	-10.492	0
20571.761	-1.346	-10.720	-4.268	-10.513	0
20571.886	-1.373	-10.735	-4.289	-10.533	0
20572.011	-1.399	-10.749	-4.311	-10.554	0
20572.136	-1.426	-10.763	-4.332	-10.574	0
20572.261	-1.452	-10.777	-4.353	-10.594	0
20572.386	-1.479	-10.791	-4.374	-10.614	0
20572.511	-1.505	-10.805	-4.395	-10.634	0
20572.636	-1.532	-10.819	-4.416	-10.654	0
20572.761	-1.558	-10.833	-4.437	-10.674	0
20572.886	-1.585	-10.847	-4.457	-10.694	0
20573.011	-1.611	-10.861	-4.477	-10.714	0
20573.136	-1.638	-10.876	-4.497	-10.734	0
20573.261	-1.664	-10.890	-4.517	-10.754	0
20573.386	-1.691	-10.904	-4.537	-10.774	0
20573.511	-1.717	-10.918	-4.556	-10.794	0
20573.636	-1.744	-10.932	-4.575	-10.814	0
20573.761	-1.770	-10.946	-4.594	-10.834	0
20573.886	-1.797	-10.960	-4.613	-10.855	0
20574.011	-1.823	-10.974	-4.631	-10.875	0
20574.136	-1.850	-10.988	-4.650	-10.895	0
20574.261	-1.876	-11.002	-4.668	-10.915	0
20574.386	-1.903	-11.016	-4.685	-10.936	0
20574.511	-1.929	-11.031	-4.703	-10.956	0
20574.636	-1.956	-11.045	-4.720	-10.977	0
20574.761	-1.982	-11.059	-4.737	-10.997	0
20574.886	-2.009	-11.073	-4.754	-11.017	0
20575.011	-2.036	-11.087	-4.771	-11.038	0
20575.136	-2.062	-11.101	-4.787	-11.058	0
20575.261	-2.089	-11.115	-4.803	-11.078	0
20575.386	-2.115	-11.129	-4.818	-11.097	0
20575.511	-2.142	-11.143	-4.834	-11.116	0
20575.636	-2.168	-11.157	-4.849	-11.136	0
20575.761	-2.065	-11.051	-4.732	-11.033	0
20575.886	-1.932	-10.916	-4.585	-10.904	0
20576.011	-1.911	-10.871	-4.553	-10.865	0
20576.136	-1.919	-10.849	-4.553	-10.849	0
20576.261	-1.928	-10.827	-4.554	-10.834	0
20576.386	-1.936	-10.806	-4.555	-10.818	0
20576.511	-1.945	-10.784	-4.557	-10.802	0
20576.636	-1.953	-10.762	-4.560	-10.787	0
20576.761	-1.961	-10.740	-4.562	-10.772	0
20576.886	-1.970	-10.719	-4.566	-10.756	0
20577.011	-1.978	-10.697	-4.570	-10.741	0
20577.136	-1.987	-10.675	-4.574	-10.726	0
20577.261	-1.995	-10.653	-4.579	-10.711	0
20577.386	-2.004	-10.631	-4.585	-10.697	0
20577.511	-2.012	-10.610	-4.590	-10.682	0
20577.636	-2.021	-10.588	-4.597	-10.667	0
20577.761	-2.029	-10.566	-4.603	-10.653	0
20577.886	-2.038	-10.544	-4.610	-10.638	0
20578.011	-2.046	-10.523	-4.616	-10.623	0
20578.136	-2.054	-10.501	-4.623	-10.608	0
20578.261	-2.063	-10.479	-4.630	-10.593	0
20578.386	-2.071	-10.457	-4.637	-10.578	0
20578.511	-2.080	-10.436	-4.645	-10.563	0
20578.636	-2.088	-10.414	-4.652	-10.548	0
20578.761	-2.097	-10.392	-4.660	-10.533	0
20578.886	-2.105	-10.370	-4.669	-10.518	0
20579.011	-2.114	-10.349	-4.679	-10.504	0
20579.136	-2.122	-10.327	-4.689	-10.490	0
20579.261	-2.131	-10.305	-4.699	-10.475	0
20579.386	-2.139	-10.283	-4.710	-10.461	0
20579.511	-2.148	-10.262	-4.721	-10.447	0
20579.636	-2.156	-10.240	-4.733	-10.433	0
