Tag:	57126
Reference:	tu22_126_05
Coast Distance (km): 	30.0
Estimation Time Delay (days): 	0.0

CNES Day	Lon	Lat	LonCor	LatCor	Delay
20297.227	-53.944	5.746	-53.944	5.746	0
20297.352	-53.932	5.699	-54.905	4.728	0
20297.477	-53.920	5.652	-54.893	4.681	0
20297.602	-53.908	5.605	-54.881	4.634	0
20297.727	-53.901	5.636	-54.874	4.665	0
20297.852	-53.896	5.710	-54.869	4.740	0
20297.977	-53.892	5.785	-54.865	4.814	0
20298.102	-53.887	5.860	-54.860	4.889	0
20298.227	-53.882	5.934	-54.855	4.964	0
20298.352	-53.878	6.009	-54.851	5.038	0
20298.477	-53.873	6.083	-54.846	5.113	0
20298.602	-53.868	6.158	-54.830	5.184	0
20298.727	-53.864	6.233	-54.815	5.254	0
20298.852	-53.859	6.307	-54.802	5.324	0
20298.977	-53.854	6.382	-54.789	5.393	0
20299.102	-53.850	6.458	-54.776	5.465	0
20299.227	-53.851	6.545	-54.768	5.549	0
20299.352	-53.851	6.633	-54.759	5.634	0
20299.477	-53.852	6.720	-54.747	5.718	0
20299.602	-53.844	6.779	-54.723	5.772	0
20299.727	-53.833	6.830	-54.694	5.818	0
20299.852	-53.822	6.881	-54.662	5.863	0
20299.977	-53.812	6.932	-54.628	5.908	0
20300.102	-53.801	6.984	-54.591	5.954	0
20300.227	-53.791	7.035	-54.550	5.999	0
20300.352	-53.780	7.086	-54.507	6.044	0
20300.477	-53.766	7.092	-54.457	6.044	0
20300.602	-53.752	7.092	-54.406	6.039	0
20300.727	-53.738	7.093	-54.355	6.036	0
20300.852	-53.723	7.094	-54.304	6.033	0
20300.977	-53.709	7.095	-54.253	6.032	0
20301.102	-53.695	7.095	-54.202	6.032	0
20301.227	-53.674	7.101	-54.144	6.037	0
20301.352	-53.629	7.123	-54.062	6.060	0
20301.477	-53.585	7.145	-53.979	6.084	0
20301.602	-53.540	7.167	-53.896	6.110	0
20301.727	-53.496	7.189	-53.813	6.136	0
20301.852	-53.451	7.211	-53.730	6.164	0
20301.977	-53.407	7.233	-53.647	6.193	0
20302.102	-53.362	7.255	-53.563	6.222	0
20302.227	-53.318	7.277	-53.480	6.253	0
20302.352	-53.273	7.299	-53.396	6.285	0
20302.477	-53.229	7.321	-53.313	6.317	0
20302.602	-53.184	7.343	-53.230	6.350	0
20302.727	-53.140	7.365	-53.148	6.382	0
20302.852	-53.095	7.387	-53.066	6.414	0
20302.977	-53.094	7.420	-53.028	6.456	0
20303.102	-53.095	7.452	-52.991	6.500	0
20303.227	-53.095	7.485	-52.954	6.544	0
20303.352	-53.095	7.517	-52.915	6.589	0
20303.477	-53.096	7.550	-52.876	6.635	0
20303.602	-53.096	7.583	-52.836	6.682	0
20303.727	-53.096	7.615	-52.794	6.729	0
20303.852	-53.097	7.648	-52.753	6.776	0
20303.977	-53.069	7.696	-52.682	6.838	0
20304.102	-53.023	7.754	-52.592	6.910	0
20304.227	-52.977	7.813	-52.502	6.980	0
20304.352	-52.931	7.871	-52.412	7.048	0
20304.477	-52.930	7.919	-52.366	7.103	0
20304.602	-52.925	7.962	-52.317	7.154	0
20304.727	-52.916	8.003	-52.265	7.202	0
20304.852	-52.907	8.044	-52.213	7.249	0
20304.977	-52.898	8.084	-52.163	7.297	0
20305.102	-52.889	8.125	-52.114	7.345	0
20305.227	-52.880	8.165	-52.066	7.393	0
20305.352	-52.874	8.207	-52.022	7.441	0
20305.477	-52.895	8.255	-52.007	7.497	0
20305.602	-52.916	8.304	-51.994	7.556	0
20305.727	-52.937	8.353	-51.981	7.616	0
20305.852	-52.958	8.401	-51.970	7.677	0
20305.977	-52.979	8.450	-51.960	7.740	0
20306.102	-52.954	8.485	-51.906	7.792	0
20306.227	-52.928	8.520	-51.852	7.841	0
20306.352	-52.901	8.555	-51.800	7.889	0
20306.477	-52.876	8.586	-51.752	7.931	0
20306.602	-52.850	8.614	-51.705	7.969	0
20306.727	-52.825	8.642	-51.661	8.006	0
20306.852	-52.800	8.670	-51.619	8.044	0
20306.977	-52.774	8.698	-51.580	8.081	0
20307.102	-52.692	8.733	-51.485	8.124	0
20307.227	-52.554	8.773	-51.338	8.170	0
20307.352	-52.488	8.830	-51.270	8.228	0
20307.477	-52.451	8.895	-51.238	8.293	0
20307.602	-52.415	8.959	-51.210	8.358	0
20307.727	-52.379	9.024	-51.184	8.423	0
20307.852	-52.342	9.088	-51.160	8.489	0
20307.977	-52.306	9.153	-51.138	8.555	0
20308.102	-52.270	9.217	-51.118	8.621	0
20308.227	-52.233	9.282	-51.099	8.686	0
20308.352	-52.197	9.346	-51.081	8.751	0
20308.477	-52.161	9.411	-51.061	8.815	0
20308.602	-51.967	9.515	-50.882	8.917	0
20308.727	-51.813	9.601	-50.743	8.992	0
20308.852	-51.766	9.645	-50.711	9.021	0
20308.977	-51.719	9.688	-50.678	9.048	0
20309.102	-51.672	9.732	-50.643	9.075	0
20309.227	-51.624	9.776	-50.608	9.101	0
20309.352	-51.577	9.820	-50.571	9.126	0
20309.477	-51.530	9.864	-50.534	9.151	0
20309.602	-51.483	9.908	-50.496	9.177	0
20309.727	-51.436	9.951	-50.458	9.203	0
20309.852	-51.388	9.995	-50.421	9.229	0
20309.977	-51.341	10.039	-50.383	9.256	0
20310.102	-51.294	10.083	-50.345	9.282	0
20310.227	-51.247	10.127	-50.307	9.310	0
20310.352	-51.200	10.171	-50.269	9.339	0
20310.477	-51.153	10.214	-50.231	9.368	0
20310.602	-51.105	10.258	-50.193	9.399	0
20310.727	-51.058	10.302	-50.156	9.432	0
20310.852	-51.017	10.335	-50.125	9.455	0
20310.977	-50.980	10.361	-50.099	9.474	0
20311.102	-50.943	10.387	-50.073	9.494	0
20311.227	-50.899	10.411	-50.041	9.515	0
20311.352	-50.830	10.427	-49.984	9.529	0
20311.477	-50.760	10.444	-49.927	9.546	0
20311.602	-50.691	10.460	-49.871	9.565	0
20311.727	-50.622	10.476	-49.816	9.585	0
20311.852	-50.555	10.493	-49.763	9.609	0
20311.977	-50.522	10.529	-49.746	9.651	0
20312.102	-50.490	10.564	-49.727	9.694	0
20312.227	-50.457	10.599	-49.707	9.737	0
20312.352	-50.404	10.621	-49.667	9.767	0
20312.477	-50.353	10.641	-49.627	9.795	0
20312.602	-50.324	10.670	-49.608	9.833	0
20312.727	-50.295	10.699	-49.589	9.872	0
20312.852	-50.265	10.729	-49.568	9.909	0
20312.977	-50.236	10.758	-49.546	9.947	0
20313.102	-50.206	10.788	-49.524	9.984	0
20313.227	-50.177	10.817	-49.500	10.021	0
20313.352	-50.150	10.848	-49.479	10.059	0
20313.477	-50.125	10.880	-49.457	10.098	0
20313.602	-50.099	10.912	-49.434	10.136	0
20313.727	-50.073	10.943	-49.411	10.174	0
20313.852	-50.048	10.975	-49.387	10.212	0
20313.977	-50.022	11.006	-49.363	10.250	0
20314.102	-49.997	11.038	-49.338	10.287	0
20314.227	-49.971	11.070	-49.313	10.325	0
20314.352	-49.945	11.101	-49.288	10.363	0
20314.477	-49.920	11.133	-49.262	10.401	0
20314.602	-49.899	11.166	-49.241	10.440	0
20314.727	-49.879	11.198	-49.222	10.479	0
20314.852	-49.859	11.231	-49.202	10.518	0
20314.977	-49.840	11.264	-49.182	10.558	0
20315.102	-49.820	11.297	-49.162	10.597	0
20315.227	-49.801	11.329	-49.142	10.636	0
20315.352	-49.781	11.362	-49.122	10.674	0
20315.477	-49.761	11.395	-49.103	10.713	0
20315.602	-49.736	11.418	-49.077	10.742	0
20315.727	-49.696	11.413	-49.036	10.743	0
20315.852	-49.656	11.441	-48.995	10.776	0
20315.977	-49.616	11.490	-48.954	10.830	0
20316.102	-49.576	11.539	-48.911	10.882	0
20316.227	-49.536	11.588	-48.868	10.934	0
20316.352	-49.549	11.601	-48.877	10.949	0
20316.477	-49.564	11.612	-48.888	10.963	0
20316.602	-49.580	11.624	-48.900	10.976	0
20316.727	-49.595	11.635	-48.911	10.990	0
20316.852	-49.610	11.647	-48.922	11.003	0
20316.977	-49.626	11.658	-48.933	11.017	0
20317.102	-49.529	11.742	-48.829	11.102	0
20317.227	-49.376	11.860	-48.666	11.221	0
20317.352	-49.368	11.901	-48.648	11.257	0
20317.477	-49.361	11.941	-48.632	11.293	0
20317.602	-49.354	11.981	-48.614	11.328	0
20317.727	-49.348	12.020	-48.597	11.363	0
20317.852	-49.341	12.060	-48.579	11.398	0
20317.977	-49.335	12.100	-48.560	11.434	0
20318.102	-49.328	12.140	-48.541	11.470	0
20318.227	-49.321	12.179	-48.523	11.506	0
20318.352	-49.315	12.219	-48.504	11.542	0
20318.477	-49.308	12.259	-48.486	11.580	0
20318.602	-49.302	12.299	-48.468	11.618	0
20318.727	-49.295	12.338	-48.450	11.657	0
20318.852	-49.289	12.378	-48.432	11.696	0
20318.977	-49.282	12.418	-48.414	11.737	0
20319.102	-49.275	12.458	-48.396	11.779	0
20319.227	-49.269	12.497	-48.379	11.821	0
20319.352	-49.262	12.537	-48.362	11.864	0
20319.477	-49.256	12.577	-48.345	11.908	0
20319.602	-49.231	12.603	-48.309	11.938	0
20319.727	-49.195	12.620	-48.263	11.960	0
20319.852	-49.242	12.616	-48.302	11.962	0
20319.977	-49.305	12.608	-48.358	11.959	0
20320.102	-49.368	12.600	-48.414	11.957	0
20320.227	-49.393	12.607	-48.429	11.970	0
20320.352	-49.258	12.674	-48.283	12.044	0
20320.477	-49.123	12.741	-48.138	12.118	0
20320.602	-49.030	12.789	-48.038	12.173	0
20320.727	-49.011	12.801	-48.014	12.193	0
20320.852	-48.986	12.833	-47.984	12.234	0
20320.977	-48.958	12.874	-47.951	12.282	0
20321.102	-48.941	12.904	-47.929	12.320	0
20321.227	-48.926	12.934	-47.908	12.357	0
20321.352	-48.915	12.968	-47.890	12.398	0
20321.477	-48.904	13.002	-47.872	12.439	0
20321.602	-48.892	13.036	-47.853	12.480	0
20321.727	-48.881	13.069	-47.832	12.521	0
20321.852	-48.870	13.103	-47.812	12.562	0
20321.977	-48.858	13.137	-47.790	12.602	0
20322.102	-48.847	13.171	-47.767	12.642	0
20322.227	-48.836	13.205	-47.743	12.682	0
20322.352	-48.824	13.239	-47.718	12.721	0
20322.477	-48.813	13.273	-47.692	12.761	0
20322.602	-48.802	13.307	-47.664	12.800	0
20322.727	-48.790	13.340	-47.636	12.839	0
20322.852	-48.779	13.374	-47.606	12.877	0
20322.977	-48.768	13.408	-47.575	12.916	0
20323.102	-48.756	13.442	-47.542	12.954	0
20323.227	-48.745	13.476	-47.508	12.992	0
20323.352	-48.732	13.509	-47.471	13.029	0
20323.477	-48.719	13.541	-47.432	13.066	0
20323.602	-48.719	13.582	-47.407	13.111	0
20323.727	-48.724	13.627	-47.385	13.160	0
20323.852	-48.730	13.671	-47.363	13.209	0
20323.977	-48.735	13.716	-47.340	13.258	0
20324.102	-48.740	13.760	-47.317	13.307	0
20324.227	-48.745	13.805	-47.292	13.357	0
20324.352	-48.751	13.849	-47.267	13.407	0
20324.477	-48.756	13.894	-47.242	13.456	0
20324.602	-48.761	13.938	-47.217	13.506	0
20324.727	-48.768	13.982	-47.193	13.555	0
20324.852	-48.791	14.022	-47.185	13.600	0
20324.977	-48.813	14.061	-47.177	13.644	0
20325.102	-48.835	14.100	-47.170	13.688	0
20325.227	-48.857	14.140	-47.162	13.733	0
20325.352	-48.879	14.179	-47.155	13.777	0
20325.477	-48.901	14.219	-47.149	13.821	0
20325.602	-48.925	14.256	-47.145	13.863	0
20325.727	-48.952	14.290	-47.145	13.901	0
20325.852	-48.978	14.324	-47.146	13.939	0
20325.977	-49.005	14.358	-47.149	13.977	0
20326.102	-49.031	14.392	-47.152	14.015	0
20326.227	-49.057	14.426	-47.155	14.053	0
20326.352	-49.084	14.460	-47.160	14.091	0
20326.477	-49.110	14.494	-47.167	14.130	0
20326.602	-49.136	14.528	-47.174	14.168	0
20326.727	-49.155	14.583	-47.174	14.226	0
20326.852	-49.173	14.638	-47.176	14.285	0
20326.977	-49.191	14.693	-47.179	14.343	0
20327.102	-49.209	14.748	-47.184	14.402	0
20327.227	-49.228	14.803	-47.191	14.459	0
20327.352	-49.246	14.858	-47.199	14.517	0
20327.477	-49.264	14.913	-47.208	14.574	0
20327.602	-49.282	14.968	-47.219	14.631	0
20327.727	-49.301	15.023	-47.231	14.688	0
20327.852	-49.319	15.078	-47.244	14.744	0
20327.977	-49.221	15.092	-47.138	14.760	0
20328.102	-49.121	15.105	-47.029	14.775	0
20328.227	-49.021	15.119	-46.921	14.791	0
20328.352	-48.921	15.132	-46.812	14.808	0
20328.477	-48.821	15.145	-46.702	14.825	0
20328.602	-48.721	15.159	-46.592	14.844	0
20328.727	-48.655	15.174	-46.517	14.865	0
20328.852	-48.665	15.192	-46.521	14.890	0
20328.977	-48.674	15.210	-46.524	14.915	0
20329.102	-48.684	15.228	-46.527	14.940	0
20329.227	-48.668	15.266	-46.504	14.984	0
20329.352	-48.653	15.303	-46.482	15.028	0
20329.477	-48.637	15.341	-46.460	15.073	0
20329.602	-48.616	15.365	-46.432	15.104	0
20329.727	-48.593	15.385	-46.402	15.131	0
20329.852	-48.569	15.405	-46.371	15.158	0
20329.977	-48.546	15.424	-46.340	15.186	0
20330.102	-48.523	15.444	-46.308	15.213	0
20330.227	-48.499	15.464	-46.276	15.241	0
20330.352	-48.476	15.484	-46.244	15.270	0
20330.477	-48.453	15.503	-46.211	15.298	0
20330.602	-48.444	15.527	-46.193	15.331	0
20330.727	-48.481	15.564	-46.223	15.377	0
20330.852	-48.471	15.601	-46.204	15.423	0
20330.977	-48.446	15.639	-46.169	15.469	0
20331.102	-48.420	15.676	-46.135	15.515	0
20331.227	-48.395	15.714	-46.101	15.561	0
20331.352	-48.370	15.751	-46.068	15.608	0
20331.477	-48.345	15.789	-46.035	15.654	0
20331.602	-48.320	15.827	-46.002	15.700	0
20331.727	-48.295	15.864	-45.971	15.747	0
20331.852	-48.269	15.902	-45.941	15.793	0
20331.977	-48.244	15.940	-45.912	15.839	0
20332.102	-48.168	15.937	-45.831	15.844	0
20332.227	-48.046	15.884	-45.703	15.801	0
20332.352	-48.058	15.940	-45.712	15.865	0
20332.477	-48.111	16.028	-45.767	15.962	0
20332.602	-48.084	16.061	-45.740	16.004	0
20332.727	-48.054	16.093	-45.711	16.044	0
20332.852	-48.024	16.124	-45.683	16.083	0
20332.977	-47.993	16.156	-45.655	16.122	0
20333.102	-47.963	16.187	-45.628	16.161	0
20333.227	-47.933	16.218	-45.602	16.199	0
20333.352	-47.903	16.250	-45.575	16.236	0
20333.477	-47.873	16.281	-45.550	16.273	0
20333.602	-47.834	16.308	-45.516	16.304	0
20333.727	-47.796	16.334	-45.482	16.335	0
20333.852	-47.758	16.361	-45.448	16.365	0
20333.977	-47.720	16.387	-45.413	16.394	0
20334.102	-47.681	16.414	-45.378	16.422	0
20334.227	-47.643	16.440	-45.343	16.449	0
20334.352	-47.605	16.467	-45.307	16.476	0
20334.477	-47.567	16.493	-45.271	16.502	0
20334.602	-47.528	16.520	-45.235	16.527	0
20334.727	-47.490	16.547	-45.198	16.552	0
20334.852	-47.459	16.579	-45.167	16.580	0
20334.977	-47.428	16.611	-45.137	16.608	0
20335.102	-47.396	16.643	-45.105	16.635	0
20335.227	-47.365	16.675	-45.074	16.661	0
20335.352	-47.334	16.708	-45.041	16.686	0
20335.477	-47.303	16.740	-45.009	16.710	0
20335.602	-47.271	16.773	-44.975	16.734	0
20335.727	-47.243	16.822	-44.944	16.774	0
20335.852	-47.214	16.871	-44.913	16.813	0
20335.977	-47.185	16.920	-44.883	16.852	0
20336.102	-47.156	16.969	-44.852	16.891	0
20336.227	-47.128	17.018	-44.822	16.929	0
20336.352	-47.099	17.067	-44.792	16.967	0
20336.477	-47.070	17.115	-44.761	17.005	0
20336.602	-47.042	17.164	-44.730	17.043	0
20336.727	-47.013	17.213	-44.699	17.080	0
20336.852	-46.984	17.262	-44.668	17.117	0
20336.977	-46.955	17.311	-44.636	17.155	0
20337.102	-46.928	17.354	-44.605	17.186	0
20337.227	-46.901	17.387	-44.576	17.208	0
20337.352	-46.874	17.419	-44.545	17.230	0
20337.477	-46.850	17.457	-44.517	17.258	0
20337.602	-46.830	17.503	-44.494	17.296	0
20337.727	-46.811	17.550	-44.471	17.334	0
20337.852	-46.791	17.597	-44.448	17.373	0
20337.977	-46.771	17.644	-44.426	17.412	0
20338.102	-46.752	17.691	-44.403	17.452	0
20338.227	-46.732	17.738	-44.381	17.492	0
20338.352	-46.712	17.784	-44.359	17.533	0
20338.477	-46.693	17.831	-44.337	17.575	0
20338.602	-46.673	17.878	-44.316	17.617	0
20338.727	-46.621	17.910	-44.261	17.645	0
20338.852	-46.508	17.912	-44.142	17.645	0
20338.977	-46.507	17.960	-44.143	17.692	0
20339.102	-46.551	18.025	-44.191	17.757	0
20339.227	-46.596	18.091	-44.240	17.822	0
20339.352	-46.626	18.150	-44.273	17.880	0
20339.477	-46.614	18.190	-44.263	17.920	0
20339.602	-46.603	18.230	-44.253	17.961	0
20339.727	-46.591	18.271	-44.244	18.002	0
20339.852	-46.580	18.311	-44.234	18.044	0
20339.977	-46.570	18.352	-44.226	18.087	0
20340.102	-46.569	18.394	-44.229	18.132	0
20340.227	-46.569	18.436	-44.231	18.177	0
20340.352	-46.569	18.479	-44.232	18.223	0
20340.477	-46.568	18.521	-44.234	18.270	0
20340.602	-46.568	18.563	-44.236	18.317	0
20340.727	-46.567	18.606	-44.237	18.364	0
20340.852	-46.567	18.648	-44.238	18.412	0
20340.977	-46.566	18.691	-44.239	18.460	0
20341.102	-46.566	18.733	-44.240	18.508	0
20341.227	-46.565	18.775	-44.240	18.556	0
20341.352	-46.565	18.818	-44.240	18.604	0
20341.477	-46.564	18.860	-44.239	18.652	0
20341.602	-46.564	18.902	-44.238	18.700	0
20341.727	-46.563	18.945	-44.237	18.749	0
20341.852	-46.549	18.931	-44.220	18.740	0
20341.977	-46.538	18.975	-44.208	18.789	0
20342.102	-46.528	19.018	-44.195	18.837	0
20342.227	-46.517	19.062	-44.181	18.884	0
20342.352	-46.506	19.105	-44.167	18.931	0
20342.477	-46.497	19.148	-44.153	18.977	0
20342.602	-46.493	19.191	-44.145	19.022	0
20342.727	-46.490	19.233	-44.137	19.066	0
20342.852	-46.486	19.276	-44.128	19.109	0
20342.977	-46.486	19.317	-44.123	19.151	0
20343.102	-46.493	19.357	-44.124	19.190	0
20343.227	-46.499	19.397	-44.126	19.228	0
20343.352	-46.502	19.440	-44.123	19.269	0
20343.477	-46.495	19.491	-44.109	19.318	0
20343.602	-46.487	19.543	-44.095	19.365	0
20343.727	-46.480	19.594	-44.081	19.413	0
20343.852	-46.472	19.645	-44.067	19.459	0
20343.977	-46.466	19.692	-44.054	19.500	0
20344.102	-46.463	19.733	-44.044	19.535	0
20344.227	-46.459	19.774	-44.034	19.570	0
20344.352	-46.455	19.815	-44.024	19.604	0
20344.477	-46.451	19.856	-44.014	19.638	0
20344.602	-46.446	19.897	-44.003	19.672	0
20344.727	-46.425	19.944	-43.975	19.712	0
20344.852	-46.405	19.991	-43.947	19.751	0
20344.977	-46.384	20.038	-43.919	19.791	0
20345.102	-46.363	20.085	-43.892	19.830	0
20345.227	-46.342	20.132	-43.864	19.870	0
20345.352	-46.321	20.178	-43.837	19.909	0
20345.477	-46.301	20.225	-43.809	19.949	0
20345.602	-46.280	20.272	-43.782	19.988	0
20345.727	-46.259	20.319	-43.755	20.028	0
20345.852	-46.243	20.367	-43.733	20.069	0
20345.977	-46.279	20.418	-43.765	20.115	0
20346.102	-46.291	20.466	-43.773	20.156	0
20346.227	-46.282	20.509	-43.759	20.193	0
20346.352	-46.274	20.553	-43.744	20.231	0
20346.477	-46.265	20.596	-43.729	20.269	0
20346.602	-46.256	20.640	-43.714	20.307	0
20346.727	-46.247	20.683	-43.700	20.346	0
20346.852	-46.241	20.727	-43.689	20.385	0
20346.977	-46.248	20.772	-43.692	20.426	0
20347.102	-46.255	20.818	-43.694	20.468	0
20347.227	-46.261	20.863	-43.696	20.509	0
20347.352	-46.268	20.908	-43.698	20.551	0
20347.477	-46.274	20.953	-43.699	20.593	0
20347.602	-46.281	20.999	-43.701	20.636	0
20347.727	-46.287	21.044	-43.702	20.679	0
20347.852	-46.294	21.089	-43.703	20.722	0
20347.977	-46.301	21.134	-43.704	20.766	0
20348.102	-46.307	21.180	-43.705	20.811	0
20348.227	-46.314	21.225	-43.705	20.855	0
20348.352	-46.319	21.269	-43.703	20.899	0
20348.477	-46.319	21.309	-43.695	20.939	0
20348.602	-46.319	21.348	-43.686	20.978	0
20348.727	-46.319	21.388	-43.677	21.019	0
20348.852	-46.316	21.428	-43.665	21.060	0
20348.977	-46.312	21.469	-43.650	21.102	0
20349.102	-46.307	21.510	-43.635	21.144	0
20349.227	-46.303	21.550	-43.619	21.186	0
20349.352	-46.298	21.591	-43.603	21.227	0
20349.477	-46.294	21.632	-43.586	21.269	0
20349.602	-46.289	21.673	-43.569	21.311	0
20349.727	-46.285	21.714	-43.551	21.353	0
20349.852	-46.280	21.759	-43.533	21.398	0
20349.977	-46.276	21.805	-43.514	21.444	0
20350.102	-46.271	21.851	-43.496	21.489	0
20350.227	-46.267	21.897	-43.478	21.534	0
20350.352	-46.262	21.943	-43.459	21.578	0
20350.477	-46.258	21.990	-43.441	21.621	0
20350.602	-46.253	22.036	-43.422	21.664	0
20350.727	-46.249	22.082	-43.404	21.706	0
20350.852	-46.245	22.128	-43.387	21.748	0
20350.977	-46.240	22.174	-43.371	21.789	0
20351.102	-46.236	22.220	-43.357	21.829	0
20351.227	-46.231	22.266	-43.343	21.870	0
20351.352	-46.227	22.312	-43.330	21.910	0
20351.477	-46.222	22.358	-43.319	21.949	0
20351.602	-46.218	22.404	-43.308	21.988	0
20351.727	-46.213	22.450	-43.299	22.027	0
20351.852	-46.209	22.496	-43.291	22.066	0
20351.977	-46.205	22.542	-43.284	22.104	0
20352.102	-46.200	22.588	-43.278	22.143	0
20352.227	-46.196	22.634	-43.273	22.181	0
20352.352	-46.191	22.680	-43.269	22.220	0
20352.477	-46.187	22.726	-43.265	22.258	0
20352.602	-46.182	22.773	-43.262	22.295	0
20352.727	-46.178	22.819	-43.258	22.333	0
20352.852	-46.145	22.875	-43.224	22.382	0
20352.977	-46.112	22.931	-43.191	22.429	0
20353.102	-46.079	22.987	-43.157	22.477	0
20353.227	-46.047	23.043	-43.122	22.523	0
20353.352	-46.018	23.100	-43.092	22.570	0
20353.477	-45.993	23.158	-43.065	22.617	0
20353.602	-45.968	23.215	-43.037	22.663	0
20353.727	-45.945	23.272	-43.011	22.708	0
20353.852	-45.949	23.329	-43.013	22.752	0
20353.977	-45.953	23.385	-43.016	22.797	0
20354.102	-45.957	23.441	-43.018	22.841	0
20354.227	-45.961	23.497	-43.019	22.886	0
20354.352	-45.964	23.552	-43.019	22.930	0
20354.477	-45.956	23.597	-43.007	22.964	0
20354.602	-45.950	23.644	-42.997	23.002	0
20354.727	-45.947	23.698	-42.990	23.046	0
20354.852	-45.944	23.751	-42.983	23.090	0
20354.977	-45.941	23.805	-42.975	23.135	0
20355.102	-45.937	23.858	-42.968	23.181	0
20355.227	-45.934	23.912	-42.960	23.228	0
20355.352	-45.931	23.965	-42.952	23.275	0
20355.477	-45.928	24.018	-42.944	23.323	0
20355.602	-45.925	24.072	-42.936	23.371	0
20355.727	-45.921	24.125	-42.928	23.420	0
20355.852	-45.924	24.166	-42.926	23.457	0
20355.977	-45.931	24.197	-42.929	23.484	0
20356.102	-45.938	24.228	-42.933	23.512	0
20356.227	-45.940	24.260	-42.932	23.541	0
20356.352	-45.907	24.309	-42.894	23.587	0
20356.477	-45.874	24.357	-42.856	23.633	0
20356.602	-45.840	24.405	-42.820	23.681	0
20356.727	-45.807	24.454	-42.785	23.729	0
20356.852	-45.774	24.502	-42.751	23.777	0
