Tag:	57951
Reference:	tu26_D_05
Coast Distance (km): 	30.0
Estimation Time Delay (days): 	0.0

CNES Day	Lon	Lat	LonCor	LatCor	Delay
20277.004	-81.708	9.011	-81.708	9.011	0
20277.129	-81.668	9.044	-82.648	8.073	0
20277.254	-81.628	9.078	-82.607	8.107	0
20277.379	-81.588	9.111	-82.567	8.140	0
20277.504	-81.548	9.144	-82.526	8.173	0
20277.629	-81.508	9.177	-82.486	8.207	0
20277.754	-81.468	9.211	-82.445	8.240	0
20277.879	-81.428	9.244	-82.405	8.273	0
20278.004	-81.387	9.277	-82.364	8.307	0
20278.129	-81.347	9.310	-82.324	8.340	0
20278.254	-81.307	9.344	-82.283	8.373	0
20278.379	-81.275	9.345	-82.244	8.373	0
20278.504	-81.245	9.333	-82.210	8.359	0
20278.629	-81.216	9.321	-82.177	8.344	0
20278.754	-81.240	9.385	-82.202	8.405	0
20278.879	-81.297	9.495	-82.250	8.514	0
20279.004	-81.269	9.585	-82.198	8.605	0
20279.129	-81.233	9.673	-82.140	8.695	0
20279.254	-81.197	9.761	-82.097	8.785	0
20279.379	-81.161	9.848	-82.066	8.875	0
20279.504	-81.125	9.936	-82.047	8.966	0
20279.629	-81.088	10.024	-82.033	9.055	0
20279.754	-81.052	10.112	-82.023	9.141	0
20279.879	-81.016	10.200	-82.017	9.223	0
20280.004	-80.975	10.265	-82.010	9.281	0
20280.129	-80.928	10.297	-81.992	9.302	0
20280.254	-80.812	10.360	-81.902	9.354	0
20280.379	-80.743	10.440	-81.856	9.422	0
20280.504	-80.832	10.560	-81.967	9.528	0
20280.629	-80.890	10.674	-82.046	9.629	0
20280.754	-80.931	10.784	-82.108	9.727	0
20280.879	-80.972	10.895	-82.169	9.826	0
20281.004	-81.014	11.006	-82.229	9.924	0
20281.129	-80.969	11.036	-82.199	9.941	0
20281.254	-80.919	11.061	-82.164	9.952	0
20281.379	-80.869	11.086	-82.128	9.963	0
20281.504	-80.819	11.111	-82.092	9.973	0
20281.629	-80.769	11.137	-82.055	9.983	0
20281.754	-80.719	11.162	-82.017	9.993	0
20281.879	-80.672	11.224	-81.983	10.039	0
20282.004	-80.626	11.303	-81.949	10.104	0
20282.129	-80.579	11.383	-81.916	10.170	0
20282.254	-80.533	11.463	-81.884	10.238	0
20282.379	-80.486	11.543	-81.853	10.306	0
20282.504	-80.440	11.623	-81.823	10.375	0
20282.629	-80.394	11.702	-81.793	10.446	0
20282.754	-80.347	11.782	-81.762	10.516	0
20282.879	-80.305	11.859	-81.735	10.585	0
20283.004	-80.284	11.918	-81.728	10.636	0
20283.129	-80.263	11.977	-81.720	10.687	0
20283.254	-80.242	12.036	-81.710	10.738	0
20283.379	-80.221	12.096	-81.698	10.789	0
20283.504	-80.200	12.155	-81.685	10.841	0
20283.629	-80.179	12.214	-81.671	10.892	0
20283.754	-80.158	12.273	-81.654	10.944	0
20283.879	-80.136	12.332	-81.636	10.995	0
20284.004	-80.115	12.392	-81.615	11.045	0
20284.129	-80.094	12.451	-81.592	11.096	0
20284.254	-80.076	12.514	-81.569	11.149	0
20284.379	-80.058	12.577	-81.545	11.202	0
20284.504	-80.040	12.640	-81.519	11.255	0
20284.629	-80.022	12.703	-81.492	11.307	0
20284.754	-79.998	12.768	-81.458	11.361	0
20284.879	-79.960	12.838	-81.409	11.420	0
20285.004	-79.923	12.908	-81.359	11.479	0
20285.129	-79.885	12.978	-81.309	11.538	0
20285.254	-79.848	13.048	-81.258	11.596	0
20285.379	-79.819	13.118	-81.215	11.655	0
20285.504	-79.869	13.196	-81.252	11.720	0
20285.629	-79.919	13.274	-81.289	11.785	0
20285.754	-79.969	13.351	-81.326	11.849	0
20285.879	-80.020	13.429	-81.364	11.911	0
20286.004	-80.070	13.507	-81.402	11.973	0
20286.129	-80.120	13.584	-81.439	12.033	0
20286.254	-80.170	13.662	-81.477	12.093	0
20286.379	-80.221	13.740	-81.514	12.151	0
20286.504	-80.271	13.818	-81.552	12.209	0
20286.629	-80.313	13.898	-81.581	12.267	0
20286.754	-80.306	13.993	-81.561	12.340	0
20286.879	-80.299	14.087	-81.540	12.410	0
20287.004	-80.293	14.182	-81.519	12.481	0
20287.129	-80.286	14.277	-81.497	12.552	0
20287.254	-80.279	14.372	-81.476	12.622	0
20287.379	-80.272	14.467	-81.455	12.693	0
20287.504	-80.265	14.562	-81.433	12.764	0
20287.629	-80.258	14.657	-81.410	12.824	0
20287.754	-80.252	14.751	-81.388	12.882	0
20287.879	-80.245	14.846	-81.367	12.939	0
20288.004	-80.238	14.941	-81.346	12.994	0
20288.129	-80.231	15.036	-81.326	13.048	0
20288.254	-80.224	15.131	-81.306	13.099	0
20288.379	-80.218	15.226	-81.287	13.150	0
20288.504	-80.220	15.327	-81.275	13.206	0
20288.629	-80.261	15.460	-81.303	13.293	0
20288.754	-80.303	15.592	-81.332	13.382	0
20288.879	-80.345	15.724	-81.360	13.474	0
20289.004	-80.370	15.807	-81.372	13.519	0
20289.129	-80.396	15.889	-81.384	13.567	0
20289.254	-80.422	15.971	-81.396	13.616	0
20289.379	-80.448	16.054	-81.408	13.667	0
20289.504	-80.473	16.136	-81.420	13.721	0
20289.629	-80.499	16.218	-81.432	13.776	0
20289.754	-80.525	16.300	-81.444	13.832	0
20289.879	-80.551	16.382	-81.455	13.889	0
20290.004	-80.578	16.473	-81.468	13.955	0
20290.129	-80.607	16.568	-81.482	14.028	0
20290.254	-80.636	16.664	-81.495	14.103	0
20290.379	-80.625	16.747	-81.468	14.165	0
20290.504	-80.500	16.791	-81.323	14.189	0
20290.629	-80.375	16.835	-81.178	14.213	0
20290.754	-80.249	16.878	-81.034	14.235	0
20290.879	-80.124	16.922	-80.889	14.254	0
20291.004	-80.038	16.967	-80.784	14.271	0
20291.129	-80.165	17.018	-80.898	14.292	0
20291.254	-80.293	17.068	-81.012	14.315	0
20291.379	-80.420	17.119	-81.127	14.341	0
20291.504	-80.548	17.170	-81.241	14.369	0
20291.629	-80.657	17.221	-81.336	14.399	0
20291.754	-80.700	17.274	-81.363	14.433	0
20291.879	-80.737	17.307	-81.382	14.447	0
20292.004	-80.768	17.324	-81.395	14.446	0
20292.129	-80.801	17.409	-81.408	14.515	0
20292.254	-80.834	17.519	-81.419	14.609	0
20292.379	-80.887	17.550	-81.448	14.626	0
20292.504	-80.942	17.576	-81.477	14.640	0
20292.629	-80.996	17.602	-81.504	14.655	0
20292.754	-81.088	17.635	-81.569	14.678	0
20292.879	-81.173	17.670	-81.625	14.703	0
20293.004	-81.234	17.715	-81.654	14.738	0
20293.129	-81.295	17.760	-81.680	14.773	0
20293.254	-81.356	17.804	-81.704	14.809	0
20293.379	-81.421	17.873	-81.731	14.870	0
20293.504	-81.483	17.940	-81.752	14.929	0
20293.629	-81.532	17.995	-81.757	14.979	0
20293.754	-81.581	18.051	-81.763	15.029	0
20293.879	-81.630	18.107	-81.769	15.078	0
20294.004	-81.683	18.179	-81.780	15.144	0
20294.129	-81.736	18.249	-81.793	15.209	0
20294.254	-81.789	18.313	-81.808	15.267	0
20294.379	-81.847	18.380	-81.831	15.328	0
20294.504	-81.908	18.449	-81.860	15.389	0
20294.629	-81.942	18.527	-81.864	15.459	0
20294.754	-81.971	18.607	-81.869	15.532	0
20294.879	-82.001	18.688	-81.877	15.605	0
20295.004	-82.054	18.747	-81.913	15.658	0
20295.129	-82.123	18.791	-81.968	15.696	0
20295.254	-82.192	18.836	-82.024	15.735	0
20295.379	-82.254	18.881	-82.073	15.774	0
20295.504	-82.284	18.932	-82.090	15.820	0
20295.629	-82.314	18.983	-82.108	15.866	0
20295.754	-82.344	19.033	-82.129	15.912	0
20295.879	-82.373	19.084	-82.152	15.958	0
20296.004	-82.403	19.135	-82.177	16.004	0
20296.129	-82.433	19.185	-82.205	16.050	0
20296.254	-82.462	19.236	-82.236	16.096	0
20296.379	-82.492	19.287	-82.268	16.141	0
20296.504	-82.522	19.337	-82.302	16.185	0
20296.629	-82.551	19.388	-82.337	16.228	0
20296.754	-82.581	19.439	-82.373	16.271	0
20296.879	-82.611	19.489	-82.411	16.313	0
20297.004	-82.640	19.540	-82.449	16.355	0
20297.129	-82.660	19.591	-82.477	16.396	0
20297.254	-82.677	19.641	-82.503	16.436	0
20297.379	-82.694	19.692	-82.528	16.475	0
20297.504	-82.712	19.743	-82.553	16.513	0
20297.629	-82.729	19.793	-82.578	16.551	0
20297.754	-82.769	19.858	-82.625	16.601	0
20297.879	-82.811	19.924	-82.676	16.651	0
20298.004	-82.854	19.990	-82.725	16.699	0
20298.129	-82.897	20.056	-82.773	16.745	0
20298.254	-82.939	20.122	-82.819	16.790	0
20298.379	-82.982	20.188	-82.864	16.831	0
20298.504	-83.024	20.254	-82.908	16.872	0
20298.629	-83.025	20.305	-82.906	16.895	0
20298.754	-83.017	20.353	-82.894	16.916	0
20298.879	-83.010	20.400	-82.881	16.937	0
20299.004	-83.083	20.442	-82.952	16.953	0
20299.129	-83.176	20.491	-83.042	16.974	0
20299.254	-83.214	20.565	-83.071	17.018	0
20299.379	-83.252	20.638	-83.100	17.064	0
20299.504	-83.290	20.711	-83.128	17.111	0
20299.629	-83.328	20.784	-83.155	17.158	0
20299.754	-83.366	20.858	-83.180	17.207	0
20299.879	-83.403	20.931	-83.205	17.259	0
20300.004	-83.441	21.004	-83.230	17.315	0
20300.129	-83.479	21.077	-83.254	17.373	0
20300.254	-83.517	21.151	-83.278	17.435	0
20300.379	-83.555	21.224	-83.302	17.499	0
20300.504	-83.592	21.297	-83.326	17.566	0
20300.629	-83.630	21.371	-83.351	17.636	0
20300.754	-83.668	21.444	-83.375	17.709	0
20300.879	-83.665	21.493	-83.359	17.760	0
20301.004	-83.648	21.534	-83.329	17.804	0
20301.129	-83.631	21.575	-83.302	17.849	0
20301.254	-83.614	21.616	-83.277	17.896	0
20301.379	-83.597	21.657	-83.253	17.944	0
20301.504	-83.580	21.698	-83.232	17.994	0
20301.629	-83.563	21.739	-83.211	18.044	0
20301.754	-83.546	21.780	-83.190	18.093	0
20301.879	-83.529	21.821	-83.169	18.143	0
20302.004	-83.512	21.862	-83.147	18.193	0
20302.129	-83.708	21.880	-83.350	18.220	0
20302.254	-83.921	21.897	-83.571	18.245	0
20302.379	-84.135	21.914	-83.793	18.271	0
20302.504	-84.278	21.904	-83.940	18.270	0
20302.629	-84.302	21.850	-83.962	18.225	0
20302.754	-84.326	21.797	-83.984	18.180	0
20302.879	-84.356	21.746	-84.013	18.138	0
20303.004	-84.463	21.735	-84.122	18.135	0
20303.129	-84.570	21.724	-84.230	18.133	0
20303.254	-84.676	21.713	-84.339	18.131	0
20303.379	-84.783	21.702	-84.448	18.128	0
20303.504	-84.890	21.691	-84.557	18.126	0
20303.629	-84.939	21.806	-84.605	18.250	0
20303.754	-84.913	21.821	-84.575	18.274	0
20303.879	-84.820	21.728	-84.474	18.188	0
20304.004	-84.885	21.749	-84.539	18.219	0
20304.129	-84.986	21.798	-84.642	18.276	0
20304.254	-85.088	21.847	-84.746	18.333	0
20304.379	-85.149	21.894	-84.807	18.389	0
20304.504	-85.171	21.939	-84.827	18.443	0
20304.629	-85.193	21.984	-84.846	18.497	0
20304.754	-85.215	22.030	-84.866	18.551	0
20304.879	-85.237	22.075	-84.884	18.582	0
20305.004	-85.269	22.121	-84.912	18.613	0
20305.129	-85.322	22.167	-84.963	18.645	0
20305.254	-85.472	22.213	-85.114	18.677	0
20305.379	-85.569	22.268	-85.208	18.712	0
20305.504	-85.519	22.350	-85.145	18.769	0
20305.629	-85.469	22.432	-85.082	18.831	0
20305.754	-85.419	22.513	-85.020	18.896	0
20305.879	-85.412	22.562	-85.003	18.931	0
20306.004	-85.418	22.601	-84.998	18.958	0
20306.129	-85.423	22.640	-84.994	18.986	0
20306.254	-85.428	22.679	-84.988	19.014	0
20306.379	-85.434	22.718	-84.983	19.043	0
20306.504	-85.476	22.784	-85.015	19.098	0
20306.629	-85.533	22.859	-85.062	19.162	0
20306.754	-85.637	22.934	-85.157	19.226	0
20306.879	-85.712	23.017	-85.219	19.297	0
20307.004	-85.757	23.108	-85.250	19.372	0
20307.129	-85.803	23.198	-85.282	19.444	0
20307.254	-85.848	23.288	-85.316	19.513	0
20307.379	-85.894	23.378	-85.351	19.581	0
20307.504	-85.939	23.468	-85.387	19.646	0
20307.629	-85.985	23.558	-85.426	19.710	0
20307.754	-86.030	23.648	-85.466	19.774	0
20307.879	-86.077	23.700	-85.508	19.796	0
20308.004	-86.087	23.776	-85.511	19.841	0
20308.129	-86.099	23.855	-85.518	19.888	0
20308.254	-86.121	23.941	-85.536	19.943	0
20308.379	-86.139	24.011	-85.549	19.985	0
20308.504	-86.155	24.077	-85.561	20.024	0
20308.629	-86.171	24.143	-85.574	20.064	0
20308.754	-86.186	24.208	-85.586	20.105	0
20308.879	-86.202	24.274	-85.599	20.148	0
20309.004	-86.217	24.330	-85.611	20.184	0
20309.129	-86.231	24.383	-85.622	20.219	0
20309.254	-86.246	24.437	-85.633	20.255	0
20309.379	-86.260	24.491	-85.644	20.292	0
20309.504	-86.274	24.545	-85.655	20.330	0
20309.629	-86.289	24.598	-85.668	20.370	0
20309.754	-86.303	24.652	-85.683	20.411	0
20309.879	-86.318	24.706	-85.699	20.453	0
20310.004	-86.332	24.760	-85.717	20.497	0
20310.129	-86.346	24.813	-85.736	20.541	0
20310.254	-86.344	24.875	-85.740	20.595	0
20310.379	-86.322	24.946	-85.728	20.659	0
20310.504	-86.300	25.017	-85.721	20.729	0
20310.629	-86.279	25.087	-85.720	20.803	0
20310.754	-86.257	25.158	-85.723	20.882	0
20310.879	-86.235	25.229	-85.731	20.963	0
20311.004	-86.213	25.300	-85.742	21.047	0
20311.129	-86.192	25.370	-85.757	21.135	0
20311.254	-86.172	25.382	-85.778	21.165	0
20311.379	-86.153	25.354	-85.799	21.157	0
20311.504	-86.111	25.367	-85.794	21.194	0
20311.629	-86.068	25.382	-85.788	21.235	0
20311.754	-86.025	25.396	-85.782	21.280	0
20311.879	-85.982	25.411	-85.775	21.330	0
20312.004	-85.939	25.425	-85.768	21.382	0
20312.129	-85.897	25.440	-85.760	21.438	0
20312.254	-85.854	25.454	-85.753	21.496	0
20312.379	-85.811	25.469	-85.745	21.557	0
20312.504	-85.758	25.453	-85.727	21.591	0
20312.629	-85.699	25.416	-85.701	21.608	0
20312.754	-85.640	25.379	-85.677	21.631	0
20312.879	-85.581	25.342	-85.653	21.658	0
20313.004	-85.522	25.305	-85.628	21.686	0
20313.129	-85.466	25.249	-85.605	21.698	0
20313.254	-85.413	25.177	-85.586	21.697	0
20313.379	-85.410	25.106	-85.621	21.700	0
20313.504	-85.406	25.034	-85.656	21.706	0
20313.629	-85.403	24.962	-85.692	21.713	0
20313.754	-85.399	24.890	-85.728	21.720	0
20313.879	-85.396	24.819	-85.763	21.727	0
20314.004	-85.393	24.747	-85.797	21.734	0
20314.129	-85.389	24.675	-85.831	21.741	0
20314.254	-85.289	24.649	-85.761	21.791	0
20314.379	-85.182	24.627	-85.686	21.849	0
20314.504	-85.074	24.605	-85.615	21.908	0
20314.629	-84.967	24.583	-85.548	21.967	0
20314.754	-84.870	24.565	-85.498	22.028	0
20314.879	-84.803	24.560	-85.481	22.092	0
20315.004	-84.736	24.554	-85.465	22.149	0
20315.129	-84.669	24.548	-85.448	22.201	0
20315.254	-84.602	24.543	-85.433	22.246	0
20315.379	-84.553	24.552	-85.436	22.299	0
20315.504	-84.545	24.594	-85.479	22.379	0
20315.629	-84.537	24.636	-85.516	22.456	0
20315.754	-84.528	24.678	-85.547	22.533	0
20315.879	-84.496	24.769	-85.544	22.657	0
20316.004	-84.446	24.895	-85.509	22.811	0
20316.129	-84.474	24.942	-85.547	22.876	0
20316.254	-84.530	24.961	-85.611	22.915	0
20316.379	-84.585	24.980	-85.674	22.960	0
20316.504	-84.428	25.029	-85.506	23.038	0
20316.629	-84.274	25.078	-85.333	23.102	0
20316.754	-84.499	25.084	-85.567	23.114	0
20316.879	-84.597	25.077	-85.667	23.125	0
20317.004	-84.622	25.060	-85.688	23.137	0
20317.129	-84.729	25.125	-85.800	23.233	0
20317.254	-84.871	25.224	-85.953	23.372	0
20317.379	-85.012	25.323	-86.110	23.521	0
20317.504	-85.112	25.409	-86.229	23.664	0
20317.629	-84.852	25.379	-85.961	23.690	0
20317.754	-84.694	25.369	-85.789	23.720	0
20317.879	-84.634	25.379	-85.714	23.757	0
20318.004	-84.646	25.404	-85.717	23.805	0
20318.129	-84.659	25.429	-85.721	23.852	0
20318.254	-84.671	25.454	-85.726	23.899	0
20318.379	-84.684	25.479	-85.731	23.946	0
20318.504	-84.696	25.504	-85.738	23.993	0
20318.629	-84.709	25.529	-85.746	24.040	0
20318.754	-84.758	25.547	-85.794	24.080	0
20318.879	-84.831	25.561	-85.872	24.118	0
20319.004	-84.903	25.575	-85.953	24.160	0
20319.129	-84.965	25.593	-86.026	24.210	0
20319.254	-84.842	25.692	-85.900	24.343	0
20319.379	-84.719	25.791	-85.768	24.464	0
20319.504	-84.726	25.797	-85.774	24.483	0
20319.629	-84.735	25.801	-85.783	24.501	0
20319.754	-84.743	25.819	-85.791	24.532	0
20319.879	-84.749	25.860	-85.798	24.587	0
20320.004	-84.756	25.902	-85.805	24.641	0
20320.129	-84.762	25.944	-85.812	24.693	0
20320.254	-84.768	25.985	-85.820	24.745	0
20320.379	-84.775	26.027	-85.828	24.795	0
20320.504	-84.781	26.069	-85.837	24.845	0
20320.629	-84.787	26.111	-85.846	24.894	0
20320.754	-84.793	26.152	-85.856	24.941	0
20320.879	-84.865	26.107	-85.937	24.902	0
20321.004	-84.876	26.170	-85.954	24.973	0
20321.129	-84.887	26.233	-85.972	25.042	0
20321.254	-84.898	26.296	-85.990	25.110	0
20321.379	-84.910	26.359	-86.007	25.177	0
20321.504	-84.904	26.406	-86.006	25.228	0
20321.629	-84.886	26.442	-85.992	25.267	0
20321.754	-84.869	26.477	-85.977	25.306	0
20321.879	-84.852	26.513	-85.963	25.345	0
20322.004	-84.835	26.549	-85.948	25.383	0
20322.129	-84.862	26.606	-85.983	25.442	0
20322.254	-84.918	26.677	-86.048	25.515	0
20322.379	-84.973	26.748	-86.112	25.589	0
20322.504	-85.044	26.853	-86.190	25.699	0
20322.629	-85.121	26.975	-86.275	25.829	0
20322.754	-85.198	27.097	-86.358	25.961	0
20322.879	-85.275	27.219	-86.442	26.094	0
20323.004	-85.152	27.200	-86.305	26.089	0
20323.129	-85.000	27.161	-86.134	26.060	0
20323.254	-84.848	27.121	-85.963	26.028	0
20323.379	-84.696	27.081	-85.792	25.993	0
20323.504	-84.629	27.092	-85.719	26.005	0
20323.629	-84.733	27.203	-85.836	26.116	0
20323.754	-84.837	27.315	-85.952	26.230	0
20323.879	-84.942	27.426	-86.067	26.346	0
20324.004	-85.075	27.548	-86.214	26.474	0
20324.129	-85.248	27.623	-86.409	26.557	0
20324.254	-84.969	27.542	-86.100	26.486	0
20324.379	-84.812	27.493	-85.924	26.442	0
20324.504	-84.876	27.500	-85.994	26.454	0
20324.629	-84.888	27.554	-86.005	26.512	0
20324.754	-84.895	27.612	-86.012	26.575	0
20324.879	-84.903	27.670	-86.021	26.638	0
20325.004	-84.910	27.728	-86.030	26.701	0
20325.129	-84.917	27.786	-86.040	26.765	0
20325.254	-84.925	27.843	-86.051	26.828	0
20325.379	-84.932	27.901	-86.062	26.892	0
20325.504	-84.940	27.959	-86.073	26.956	0
20325.629	-84.985	28.006	-86.128	27.008	0
20325.754	-85.049	28.047	-86.202	27.054	0
20325.879	-85.069	28.124	-86.226	27.136	0
20326.004	-85.090	28.200	-86.249	27.216	0
20326.129	-85.098	28.223	-86.257	27.243	0
20326.254	-85.105	28.240	-86.262	27.262	0
20326.379	-85.112	28.257	-86.265	27.282	0
20326.504	-85.119	28.273	-86.267	27.300	0
20326.629	-85.126	28.290	-86.268	27.319	0
20326.754	-85.133	28.307	-86.269	27.336	0
20326.879	-85.140	28.324	-86.269	27.354	0
20327.004	-85.146	28.341	-86.269	27.371	0
20327.129	-85.137	28.360	-86.252	27.390	0
20327.254	-85.127	28.379	-86.232	27.409	0
20327.379	-85.116	28.398	-86.212	27.428	0
20327.504	-85.070	28.466	-86.152	27.494	0
20327.629	-84.954	28.629	-86.012	27.657	0
20327.754	-84.837	28.793	-85.873	27.819	0
20327.879	-84.770	28.920	-85.791	27.945	0
20328.004	-84.850	28.933	-85.876	27.960	0
20328.129	-84.929	28.947	-85.961	27.973	0
20328.254	-85.008	28.961	-86.046	27.983	0
20328.379	-85.088	28.975	-86.130	27.990	0
20328.504	-85.167	28.989	-86.215	27.995	0
20328.629	-85.247	29.003	-86.299	27.998	0
20328.754	-85.326	29.017	-86.384	27.998	0
20328.879	-85.406	29.031	-86.470	27.996	0
20329.004	-85.485	29.045	-86.557	27.993	0
20329.129	-85.565	29.058	-86.646	27.989	0
20329.254	-85.644	29.072	-86.735	27.982	0
20329.379	-85.713	29.087	-86.814	27.974	0
20329.504	-85.744	29.102	-86.853	27.965	0
20329.629	-85.776	29.117	-86.893	27.954	0
20329.754	-85.808	29.133	-86.934	27.946	0
20329.879	-85.840	29.148	-86.975	27.939	0
20330.004	-85.872	29.163	-87.016	27.935	0
20330.129	-85.904	29.178	-87.057	27.934	0
20330.254	-85.936	29.194	-87.098	27.935	0
20330.379	-85.968	29.209	-87.140	27.938	0
20330.504	-86.000	29.224	-87.181	27.945	0
20330.629	-85.990	29.241	-87.176	27.955	0
20330.754	-85.956	29.258	-87.142	27.966	0
20330.879	-85.963	29.252	-87.153	27.954	0
20331.004	-85.972	29.244	-87.166	27.941	0
20331.129	-85.981	29.237	-87.179	27.929	0
20331.254	-85.990	29.229	-87.191	27.917	0
20331.379	-85.999	29.221	-87.203	27.906	0
20331.504	-86.009	29.206	-87.215	27.888	0
20331.629	-86.019	29.191	-87.228	27.870	0
20331.754	-86.029	29.176	-87.241	27.853	0
20331.879	-86.048	29.175	-87.265	27.851	0
20332.004	-86.075	29.189	-87.298	27.864	0
20332.129	-86.088	29.184	-87.314	27.858	0
20332.254	-86.100	29.179	-87.331	27.853	0
20332.379	-86.113	29.174	-87.348	27.847	0
20332.504	-86.125	29.169	-87.365	27.843	0
20332.629	-86.138	29.164	-87.382	27.838	0
20332.754	-86.182	29.079	-87.435	27.753	0
20332.879	-86.229	28.985	-87.493	27.661	0
20333.004	-86.277	28.891	-87.553	27.572	0
20333.129	-86.379	28.886	-87.678	27.574	0
20333.254	-86.522	28.947	-87.851	27.642	0
20333.379	-86.666	29.008	-88.024	27.711	0
20333.504	-86.809	29.069	-88.197	27.780	0
20333.629	-86.952	29.130	-88.366	27.850	0
20333.754	-86.865	29.113	-88.270	27.843	0
20333.879	-86.589	29.032	-87.962	27.771	0
20334.004	-86.313	28.951	-87.659	27.697	0
20334.129	-86.174	28.885	-87.509	27.637	0
20334.254	-86.435	28.863	-87.808	27.621	0
20334.379	-86.526	28.861	-87.922	27.626	0
20334.504	-86.473	28.875	-87.873	27.648	0
20334.629	-86.420	28.889	-87.824	27.670	0
20334.754	-86.367	28.903	-87.774	27.691	0
20334.879	-86.314	28.917	-87.723	27.712	0
20335.004	-86.261	28.931	-87.671	27.732	0
20335.129	-86.208	28.945	-87.617	27.751	0
20335.254	-86.155	28.959	-87.561	27.770	0
20335.379	-86.103	28.972	-87.505	27.787	0
20335.504	-86.103	28.941	-87.507	27.759	0
20335.629	-86.103	28.910	-87.508	27.731	0
20335.754	-86.103	28.879	-87.510	27.704	0
20335.879	-86.102	28.848	-87.512	27.678	0
20336.004	-86.102	28.817	-87.513	27.652	0
20336.129	-86.102	28.786	-87.515	27.626	0
