Tag:	59156
Reference:	tu40-A-06
Coast Distance (km): 	30.0
Estimation Time Delay (days): 	0.0

CNES Day	Lon	Lat	LonCor	LatCor	Delay
20756.263	-56.634	-34.878	-56.634	-34.878	0
20756.388	-56.621	-34.907	-57.806	-35.878	0
20756.513	-56.608	-34.935	-57.790	-35.906	0
20756.638	-56.594	-34.964	-57.774	-35.935	0
20756.763	-56.581	-34.993	-57.758	-35.964	0
20756.888	-56.568	-35.021	-57.741	-35.992	0
20757.013	-56.555	-35.050	-57.725	-36.021	0
20757.138	-56.542	-35.079	-57.708	-36.050	0
20757.263	-56.528	-35.107	-57.692	-36.078	0
20757.388	-56.519	-35.138	-57.675	-36.114	0
20757.513	-56.514	-35.169	-57.667	-36.151	0
20757.638	-56.514	-35.192	-57.669	-36.180	0
20757.763	-56.515	-35.215	-57.672	-36.209	0
20757.888	-56.515	-35.238	-57.675	-36.240	0
20758.013	-56.516	-35.261	-57.678	-36.272	0
20758.138	-56.516	-35.283	-57.682	-36.304	0
20758.263	-56.517	-35.306	-57.687	-36.338	0
20758.388	-56.507	-35.340	-57.678	-36.383	0
20758.513	-56.451	-35.423	-57.611	-36.479	0
20758.638	-56.396	-35.506	-57.541	-36.575	0
20758.763	-56.340	-35.589	-57.471	-36.668	0
20758.888	-56.297	-35.590	-57.416	-36.674	0
20759.013	-56.255	-35.587	-57.359	-36.681	0
20759.138	-56.213	-35.585	-57.298	-36.691	0
20759.263	-56.188	-35.601	-57.257	-36.722	0
20759.388	-56.174	-35.627	-57.227	-36.763	0
20759.513	-56.159	-35.653	-57.197	-36.804	0
20759.638	-56.145	-35.680	-57.168	-36.844	0
20759.763	-56.130	-35.706	-57.138	-36.885	0
20759.888	-56.115	-35.732	-57.108	-36.925	0
20760.013	-56.101	-35.758	-57.078	-36.966	0
20760.138	-56.109	-35.754	-57.075	-36.976	0
20760.263	-56.112	-35.730	-57.066	-36.968	0
20760.388	-56.089	-35.655	-57.022	-36.909	0
20760.513	-56.066	-35.580	-56.970	-36.857	0
20760.638	-56.043	-35.506	-56.910	-36.810	0
20760.763	-55.965	-35.446	-56.777	-36.778	0
20760.888	-55.872	-35.408	-56.625	-36.768	0
20761.013	-55.735	-35.434	-56.424	-36.815	0
20761.138	-55.678	-35.423	-56.326	-36.824	0
20761.263	-55.702	-35.374	-56.334	-36.795	0
20761.388	-55.726	-35.325	-56.343	-36.764	0
20761.513	-55.750	-35.276	-56.352	-36.731	0
20761.638	-55.775	-35.227	-56.362	-36.695	0
20761.763	-55.790	-35.245	-56.361	-36.722	0
20761.888	-55.803	-35.293	-56.351	-36.778	0
20762.013	-55.803	-35.357	-56.322	-36.851	0
20762.138	-55.801	-35.423	-56.289	-36.926	0
20762.263	-55.799	-35.489	-56.257	-37.001	0
20762.388	-55.792	-35.504	-56.216	-37.027	0
20762.513	-55.782	-35.497	-56.171	-37.030	0
20762.638	-55.771	-35.491	-56.125	-37.032	0
20762.763	-55.765	-35.489	-56.087	-37.045	0
20762.888	-55.776	-35.513	-56.072	-37.086	0
20763.013	-55.787	-35.536	-56.060	-37.130	0
20763.138	-55.797	-35.559	-56.051	-37.178	0
20763.263	-55.813	-35.557	-56.051	-37.204	0
20763.388	-55.825	-35.548	-56.048	-37.225	0
20763.513	-55.823	-35.515	-56.029	-37.223	0
20763.638	-55.820	-35.481	-56.011	-37.224	0
20763.763	-55.818	-35.448	-55.993	-37.224	0
20763.888	-55.815	-35.414	-55.973	-37.223	0
20764.013	-55.813	-35.381	-55.953	-37.221	0
20764.138	-55.810	-35.348	-55.932	-37.217	0
20764.263	-55.808	-35.314	-55.910	-37.212	0
20764.388	-55.805	-35.281	-55.887	-37.206	0
20764.513	-55.803	-35.247	-55.864	-37.198	0
20764.638	-55.768	-35.241	-55.802	-37.215	0
20764.763	-55.678	-35.283	-55.675	-37.282	0
20764.888	-55.591	-35.274	-55.558	-37.304	0
20765.013	-55.507	-35.236	-55.451	-37.297	0
20765.138	-55.423	-35.199	-55.352	-37.289	0
20765.263	-55.339	-35.161	-55.260	-37.279	0
20765.388	-55.254	-35.124	-55.173	-37.269	0
20765.513	-55.170	-35.086	-55.087	-37.258	0
20765.638	-55.086	-35.049	-55.001	-37.248	0
20765.763	-55.002	-35.011	-54.914	-37.238	0
20765.888	-54.926	-34.993	-54.839	-37.247	0
20766.013	-54.865	-35.008	-54.781	-37.288	0
20766.138	-54.756	-35.013	-54.664	-37.320	0
20766.263	-54.611	-35.011	-54.501	-37.346	0
20766.388	-54.603	-35.023	-54.510	-37.385	0
20766.513	-54.601	-35.036	-54.528	-37.425	0
20766.638	-54.600	-35.049	-54.545	-37.465	0
20766.763	-54.599	-35.062	-54.563	-37.504	0
20766.888	-54.597	-35.075	-54.581	-37.544	0
20767.013	-54.596	-35.088	-54.599	-37.584	0
20767.138	-54.595	-35.100	-54.617	-37.624	0
20767.263	-54.594	-35.113	-54.634	-37.664	0
20767.388	-54.592	-35.126	-54.668	-37.680	0
20767.513	-54.591	-35.139	-54.701	-37.695	0
20767.638	-54.590	-35.152	-54.732	-37.711	0
20767.763	-54.588	-35.165	-54.763	-37.726	0
20767.888	-54.587	-35.178	-54.795	-37.741	0
20768.013	-54.586	-35.191	-54.826	-37.754	0
20768.138	-54.584	-35.203	-54.858	-37.768	0
20768.263	-54.583	-35.216	-54.891	-37.780	0
20768.388	-54.582	-35.229	-54.924	-37.792	0
20768.513	-54.580	-35.242	-54.957	-37.803	0
20768.638	-54.579	-35.255	-54.991	-37.814	0
20768.763	-54.578	-35.268	-55.025	-37.823	0
20768.888	-54.576	-35.281	-55.059	-37.830	0
20769.013	-54.575	-35.294	-55.092	-37.836	0
20769.138	-54.574	-35.306	-55.125	-37.840	0
20769.263	-54.572	-35.319	-55.157	-37.842	0
20769.388	-54.571	-35.332	-55.188	-37.843	0
20769.513	-54.570	-35.345	-55.218	-37.843	0
20769.638	-54.569	-35.358	-55.247	-37.841	0
20769.763	-54.567	-35.371	-55.275	-37.840	0
20769.888	-54.566	-35.384	-55.302	-37.840	0
20770.013	-54.565	-35.396	-55.328	-37.842	0
20770.138	-54.563	-35.409	-55.354	-37.844	0
20770.263	-54.562	-35.422	-55.378	-37.847	0
20770.388	-54.561	-35.435	-55.402	-37.851	0
20770.513	-54.559	-35.448	-55.426	-37.856	0
20770.638	-54.558	-35.461	-55.448	-37.862	0
20770.763	-54.557	-35.474	-55.469	-37.868	0
20770.888	-54.555	-35.487	-55.489	-37.874	0
20771.013	-54.554	-35.499	-55.508	-37.880	0
20771.138	-54.553	-35.512	-55.526	-37.887	0
20771.263	-54.551	-35.525	-55.543	-37.893	0
20771.388	-54.550	-35.538	-55.558	-37.900	0
20771.513	-54.549	-35.551	-55.573	-37.907	0
20771.638	-54.547	-35.564	-55.586	-37.914	0
20771.763	-54.546	-35.577	-55.600	-37.922	0
20771.888	-54.545	-35.590	-55.614	-37.931	0
20772.013	-54.543	-35.602	-55.629	-37.942	0
20772.138	-54.542	-35.615	-55.644	-37.955	0
20772.263	-54.541	-35.628	-55.661	-37.968	0
20772.388	-54.540	-35.641	-55.678	-37.983	0
20772.513	-54.538	-35.654	-55.696	-37.999	0
20772.638	-54.537	-35.667	-55.716	-38.016	0
20772.763	-54.536	-35.680	-55.734	-38.034	0
20772.888	-54.534	-35.693	-55.752	-38.052	0
20773.013	-54.533	-35.705	-55.768	-38.071	0
20773.138	-54.532	-35.718	-55.783	-38.090	0
20773.263	-54.530	-35.731	-55.798	-38.110	0
20773.388	-54.529	-35.744	-55.811	-38.130	0
20773.513	-54.528	-35.757	-55.823	-38.151	0
20773.638	-54.526	-35.770	-55.834	-38.172	0
20773.763	-54.525	-35.783	-55.844	-38.194	0
20773.888	-54.524	-35.795	-55.853	-38.216	0
20774.013	-54.522	-35.808	-55.861	-38.238	0
20774.138	-54.521	-35.821	-55.868	-38.261	0
20774.263	-54.520	-35.834	-55.874	-38.284	0
20774.388	-54.518	-35.847	-55.878	-38.307	0
20774.513	-54.517	-35.860	-55.883	-38.331	0
20774.638	-54.516	-35.873	-55.886	-38.355	0
20774.763	-54.515	-35.886	-55.891	-38.378	0
20774.888	-54.513	-35.898	-55.898	-38.401	0
20775.013	-54.512	-35.911	-55.905	-38.423	0
20775.138	-54.511	-35.924	-55.914	-38.443	0
20775.263	-54.509	-35.937	-55.925	-38.463	0
20775.388	-54.508	-35.950	-55.937	-38.482	0
20775.513	-54.507	-35.963	-55.950	-38.501	0
20775.638	-54.505	-35.976	-55.964	-38.518	0
20775.763	-54.504	-35.989	-55.979	-38.536	0
20775.888	-54.503	-36.001	-55.994	-38.554	0
20776.013	-54.501	-36.014	-56.009	-38.572	0
20776.138	-54.500	-36.027	-56.025	-38.590	0
20776.263	-54.499	-36.040	-56.042	-38.609	0
20776.388	-54.497	-36.053	-56.058	-38.627	0
20776.513	-54.496	-36.066	-56.075	-38.646	0
20776.638	-54.495	-36.079	-56.093	-38.665	0
20776.763	-54.493	-36.092	-56.111	-38.684	0
20776.888	-54.492	-36.104	-56.129	-38.703	0
20777.013	-54.491	-36.117	-56.148	-38.722	0
20777.138	-54.489	-36.130	-56.167	-38.740	0
20777.263	-54.488	-36.143	-56.187	-38.759	0
20777.388	-54.487	-36.156	-56.207	-38.777	0
20777.513	-54.486	-36.169	-56.227	-38.795	0
20777.638	-54.484	-36.182	-56.248	-38.812	0
20777.763	-54.483	-36.194	-56.269	-38.829	0
20777.888	-54.482	-36.207	-56.290	-38.846	0
20778.013	-54.480	-36.220	-56.310	-38.862	0
20778.138	-54.479	-36.233	-56.331	-38.877	0
20778.263	-54.478	-36.246	-56.352	-38.891	0
20778.388	-54.476	-36.259	-56.372	-38.905	0
20778.513	-54.475	-36.272	-56.393	-38.918	0
20778.638	-54.474	-36.285	-56.413	-38.931	0
20778.763	-54.472	-36.297	-56.434	-38.946	0
20778.888	-54.471	-36.310	-56.455	-38.962	0
20779.013	-54.470	-36.323	-56.476	-38.980	0
20779.138	-54.468	-36.336	-56.497	-38.999	0
20779.263	-54.467	-36.349	-56.519	-39.019	0
20779.388	-54.466	-36.362	-56.541	-39.042	0
20779.513	-54.464	-36.375	-56.563	-39.065	0
20779.638	-54.463	-36.388	-56.585	-39.090	0
20779.763	-54.462	-36.400	-56.607	-39.114	0
20779.888	-54.461	-36.413	-56.629	-39.137	0
20780.013	-54.459	-36.426	-56.651	-39.159	0
20780.138	-54.458	-36.439	-56.672	-39.180	0
20780.263	-54.457	-36.452	-56.693	-39.200	0
20780.388	-54.455	-36.465	-56.714	-39.219	0
20780.513	-54.454	-36.478	-56.735	-39.238	0
20780.638	-54.453	-36.491	-56.755	-39.255	0
20780.763	-54.451	-36.503	-56.775	-39.272	0
20780.888	-54.450	-36.516	-56.794	-39.289	0
20781.013	-54.449	-36.529	-56.813	-39.306	0
20781.138	-54.447	-36.542	-56.831	-39.323	0
20781.263	-54.446	-36.555	-56.849	-39.340	0
20781.388	-54.445	-36.568	-56.867	-39.357	0
20781.513	-54.443	-36.581	-56.884	-39.373	0
20781.638	-54.442	-36.593	-56.901	-39.390	0
20781.763	-54.441	-36.606	-56.917	-39.405	0
20781.888	-54.439	-36.619	-56.933	-39.420	0
20782.013	-54.438	-36.632	-56.950	-39.433	0
20782.138	-54.437	-36.645	-56.966	-39.446	0
20782.263	-54.435	-36.658	-56.983	-39.457	0
20782.388	-54.434	-36.671	-56.999	-39.468	0
20782.513	-54.433	-36.684	-57.015	-39.477	0
20782.638	-54.432	-36.696	-57.030	-39.486	0
20782.763	-54.430	-36.709	-57.046	-39.495	0
20782.888	-54.429	-36.722	-57.061	-39.504	0
20783.013	-54.428	-36.735	-57.075	-39.513	0
20783.138	-54.426	-36.748	-57.090	-39.522	0
20783.263	-54.425	-36.761	-57.103	-39.530	0
20783.388	-54.424	-36.774	-57.117	-39.538	0
20783.513	-54.422	-36.787	-57.130	-39.547	0
20783.638	-54.421	-36.799	-57.142	-39.555	0
20783.763	-54.420	-36.812	-57.155	-39.562	0
20783.888	-54.418	-36.825	-57.167	-39.570	0
20784.013	-54.417	-36.838	-57.179	-39.576	0
20784.138	-54.416	-36.851	-57.191	-39.583	0
20784.263	-54.414	-36.864	-57.202	-39.589	0
20784.388	-54.413	-36.877	-57.213	-39.594	0
20784.513	-54.412	-36.889	-57.224	-39.599	0
20784.638	-54.410	-36.902	-57.235	-39.603	0
20784.763	-54.409	-36.915	-57.245	-39.608	0
20784.888	-54.408	-36.928	-57.256	-39.612	0
20785.013	-54.407	-36.941	-57.266	-39.616	0
20785.138	-54.405	-36.954	-57.276	-39.620	0
20785.263	-54.404	-36.967	-57.286	-39.623	0
20785.388	-54.403	-36.980	-57.296	-39.627	0
20785.513	-54.401	-36.992	-57.305	-39.630	0
20785.638	-54.400	-37.005	-57.314	-39.633	0
20785.763	-54.399	-37.018	-57.322	-39.635	0
20785.888	-54.397	-37.031	-57.328	-39.636	0
20786.013	-54.396	-37.044	-57.332	-39.635	0
20786.138	-54.395	-37.057	-57.335	-39.634	0
20786.263	-54.393	-37.070	-57.336	-39.631	0
20786.388	-54.392	-37.083	-57.336	-39.627	0
20786.513	-54.391	-37.095	-57.333	-39.622	0
20786.638	-54.389	-37.108	-57.328	-39.617	0
20786.763	-54.388	-37.121	-57.323	-39.610	0
20786.888	-54.387	-37.134	-57.317	-39.604	0
20787.013	-54.385	-37.147	-57.310	-39.597	0
20787.138	-54.384	-37.160	-57.303	-39.590	0
20787.263	-54.383	-37.173	-57.296	-39.582	0
20787.388	-54.381	-37.186	-57.287	-39.575	0
20787.513	-54.380	-37.198	-57.279	-39.566	0
20787.638	-54.379	-37.211	-57.270	-39.557	0
20787.763	-54.378	-37.224	-57.261	-39.548	0
20787.888	-54.376	-37.237	-57.251	-39.539	0
20788.013	-54.375	-37.250	-57.241	-39.529	0
20788.138	-54.374	-37.263	-57.230	-39.518	0
20788.263	-54.372	-37.276	-57.219	-39.508	0
20788.388	-54.371	-37.288	-57.207	-39.497	0
20788.513	-54.370	-37.301	-57.195	-39.486	0
20788.638	-54.368	-37.314	-57.181	-39.475	0
20788.763	-54.367	-37.327	-57.167	-39.462	0
20788.888	-54.366	-37.340	-57.152	-39.449	0
20789.013	-54.364	-37.353	-57.135	-39.436	0
20789.138	-54.363	-37.366	-57.118	-39.422	0
20789.263	-54.362	-37.379	-57.099	-39.407	0
20789.388	-54.360	-37.391	-57.079	-39.391	0
20789.513	-54.359	-37.404	-57.059	-39.375	0
20789.638	-54.358	-37.417	-57.037	-39.359	0
20789.763	-54.356	-37.430	-57.015	-39.344	0
20789.888	-54.355	-37.443	-56.994	-39.330	0
20790.013	-54.354	-37.456	-56.974	-39.316	0
20790.138	-54.353	-37.469	-56.954	-39.304	0
20790.263	-54.351	-37.482	-56.935	-39.292	0
20790.388	-54.350	-37.494	-56.916	-39.281	0
20790.513	-54.349	-37.507	-56.898	-39.270	0
20790.638	-54.347	-37.520	-56.881	-39.260	0
20790.763	-54.346	-37.533	-56.864	-39.251	0
20790.888	-54.345	-37.546	-56.845	-39.242	0
20791.013	-54.343	-37.559	-56.827	-39.232	0
20791.138	-54.342	-37.572	-56.807	-39.224	0
20791.263	-54.341	-37.585	-56.787	-39.215	0
20791.388	-54.339	-37.597	-56.766	-39.207	0
20791.513	-54.338	-37.610	-56.745	-39.199	0
20791.638	-54.337	-37.623	-56.723	-39.190	0
20791.763	-54.335	-37.636	-56.701	-39.181	0
20791.888	-54.334	-37.649	-56.680	-39.171	0
20792.013	-54.333	-37.662	-56.658	-39.160	0
20792.138	-54.331	-37.675	-56.636	-39.148	0
20792.263	-54.330	-37.687	-56.614	-39.136	0
20792.388	-54.329	-37.700	-56.592	-39.122	0
20792.513	-54.327	-37.713	-56.571	-39.108	0
20792.638	-54.326	-37.726	-56.549	-39.092	0
20792.763	-54.325	-37.739	-56.529	-39.075	0
20792.888	-54.324	-37.752	-56.508	-39.057	0
20793.013	-54.322	-37.765	-56.488	-39.036	0
20793.138	-54.321	-37.778	-56.468	-39.014	0
20793.263	-54.320	-37.790	-56.448	-38.990	0
20793.388	-54.318	-37.803	-56.429	-38.965	0
20793.513	-54.317	-37.816	-56.410	-38.938	0
20793.638	-54.316	-37.829	-56.391	-38.909	0
20793.763	-54.314	-37.842	-56.373	-38.881	0
20793.888	-54.313	-37.855	-56.355	-38.852	0
20794.013	-54.312	-37.868	-56.337	-38.823	0
20794.138	-54.310	-37.881	-56.320	-38.794	0
20794.263	-54.309	-37.893	-56.303	-38.766	0
20794.388	-54.308	-37.906	-56.286	-38.737	0
20794.513	-54.306	-37.919	-56.270	-38.708	0
20794.638	-54.305	-37.932	-56.254	-38.678	0
20794.763	-54.304	-37.945	-56.238	-38.649	0
20794.888	-54.302	-37.958	-56.223	-38.618	0
20795.013	-54.301	-37.971	-56.208	-38.587	0
20795.138	-54.300	-37.984	-56.193	-38.556	0
20795.263	-54.299	-37.996	-56.179	-38.524	0
20795.388	-54.297	-38.009	-56.164	-38.492	0
20795.513	-54.296	-38.022	-56.151	-38.460	0
20795.638	-54.295	-38.035	-56.137	-38.427	0
20795.763	-54.293	-38.048	-56.127	-38.393	0
20795.888	-54.292	-38.061	-56.119	-38.359	0
20796.013	-54.291	-38.074	-56.113	-38.322	0
20796.138	-54.289	-38.086	-56.110	-38.284	0
20796.263	-54.288	-38.099	-56.109	-38.244	0
20796.388	-54.286	-38.091	-56.109	-38.182	0
20796.513	-54.284	-38.083	-56.112	-38.118	0
20796.638	-54.281	-38.075	-56.116	-38.053	0
20796.763	-54.279	-38.067	-56.120	-37.988	0
20796.888	-54.284	-38.062	-56.134	-37.926	0
20797.013	-54.287	-38.080	-56.146	-37.887	0
20797.138	-54.279	-38.094	-56.144	-37.843	0
20797.263	-54.272	-38.108	-56.141	-37.799	0
20797.388	-54.264	-38.122	-56.139	-37.754	0
20797.513	-54.256	-38.137	-56.135	-37.710	0
20797.638	-54.233	-38.215	-56.110	-37.728	0
20797.763	-54.209	-38.294	-56.083	-37.744	0
20797.888	-54.185	-38.372	-56.053	-37.758	0
20798.013	-54.161	-38.451	-56.020	-37.771	0
20798.138	-54.137	-38.529	-55.984	-37.782	0
20798.263	-54.119	-38.575	-55.956	-37.761	0
20798.388	-54.084	-38.615	-55.910	-37.735	0
20798.513	-53.817	-38.761	-55.572	-37.816	0
20798.638	-53.809	-38.867	-55.573	-37.866	0
20798.763	-53.983	-38.945	-55.813	-37.888	0
20798.888	-53.946	-39.048	-55.791	-37.929	0
20799.013	-53.909	-39.150	-55.774	-37.969	0
20799.138	-53.872	-39.253	-55.757	-38.008	0
20799.263	-53.858	-39.311	-55.769	-38.000	0
20799.388	-53.853	-39.353	-55.790	-37.972	0
20799.513	-53.848	-39.395	-55.809	-37.941	0
20799.638	-53.843	-39.436	-55.826	-37.909	0
20799.763	-53.838	-39.478	-55.842	-37.873	0
20799.888	-53.844	-39.523	-55.869	-37.840	0
20800.013	-53.855	-39.570	-55.901	-37.806	0
20800.138	-53.866	-39.618	-55.929	-37.768	0
20800.263	-53.878	-39.665	-55.953	-37.726	0
20800.388	-53.889	-39.712	-55.974	-37.681	0
20800.513	-53.914	-39.785	-56.007	-37.658	0
20800.638	-53.950	-39.880	-56.049	-37.650	0
20800.763	-53.986	-39.975	-56.093	-37.630	0
20800.888	-54.022	-40.070	-56.139	-37.599	0
20801.013	-54.059	-40.164	-56.190	-37.561	0
20801.138	-54.095	-40.259	-56.247	-37.521	0
20801.263	-54.131	-40.354	-56.308	-37.480	0
20801.388	-54.167	-40.449	-56.373	-37.445	0
20801.513	-54.203	-40.544	-56.439	-37.419	0
20801.638	-54.239	-40.639	-56.505	-37.403	0
20801.763	-54.276	-40.734	-56.568	-37.400	0
20801.888	-54.312	-40.829	-56.626	-37.411	0
20802.013	-54.348	-40.924	-56.680	-37.434	0
20802.138	-54.384	-41.019	-56.728	-37.468	0
20802.263	-54.420	-41.113	-56.773	-37.512	0
20802.388	-54.421	-41.228	-56.772	-37.583	0
20802.513	-54.401	-41.354	-56.743	-37.669	0
20802.638	-54.402	-41.490	-56.738	-37.767	0
20802.763	-54.390	-41.618	-56.714	-37.857	0
20802.888	-54.338	-41.721	-56.632	-37.918	0
20803.013	-54.336	-41.832	-56.609	-37.979	0
20803.138	-54.355	-41.948	-56.609	-38.040	0
20803.263	-54.234	-42.120	-56.430	-38.155	0
20803.388	-54.112	-42.292	-56.247	-38.260	0
20803.513	-53.991	-42.464	-56.064	-38.357	0
20803.638	-53.869	-42.637	-55.877	-38.453	0
20803.763	-53.747	-42.809	-55.696	-38.568	0
20803.888	-53.626	-42.981	-55.527	-38.713	0
20804.013	-53.504	-43.154	-55.370	-38.892	0
20804.138	-53.383	-43.326	-55.210	-39.098	0
20804.263	-53.392	-43.385	-55.207	-39.212	0
20804.388	-53.522	-43.340	-55.358	-39.217	0
20804.513	-53.653	-43.294	-55.514	-39.206	0
20804.638	-53.784	-43.249	-55.672	-39.176	0
20804.763	-53.914	-43.203	-55.828	-39.121	0
20804.888	-53.904	-43.213	-55.801	-39.095	0
20805.013	-53.781	-43.266	-55.631	-39.115	0
20805.138	-53.733	-43.325	-55.559	-39.166	0
20805.263	-53.694	-43.380	-55.499	-39.222	0
20805.388	-53.658	-43.415	-55.445	-39.264	0
20805.513	-53.634	-43.428	-55.406	-39.290	0
20805.638	-53.617	-43.429	-55.377	-39.307	0
20805.763	-53.600	-43.430	-55.346	-39.327	0
20805.888	-53.583	-43.430	-55.315	-39.348	0
20806.013	-53.566	-43.431	-55.283	-39.373	0
20806.138	-53.553	-43.427	-55.254	-39.395	0
20806.263	-53.543	-43.414	-55.230	-39.411	0
20806.388	-53.480	-43.363	-55.137	-39.391	0
20806.513	-53.417	-43.312	-55.043	-39.381	0
20806.638	-53.354	-43.261	-54.951	-39.382	0
20806.763	-53.291	-43.210	-54.863	-39.392	0
20806.888	-53.228	-43.155	-54.780	-39.403	0
20807.013	-53.169	-43.012	-54.707	-39.329	0
20807.138	-53.151	-42.888	-54.698	-39.281	0
20807.263	-53.256	-42.825	-54.848	-39.295	0
20807.388	-53.361	-42.762	-54.995	-39.300	0
20807.513	-53.463	-42.699	-55.135	-39.291	0
20807.638	-53.452	-42.630	-55.129	-39.255	0
20807.763	-53.441	-42.560	-55.128	-39.222	0
20807.888	-53.430	-42.491	-55.131	-39.192	0
20808.013	-53.468	-42.417	-55.200	-39.159	0
20808.138	-53.539	-42.340	-55.317	-39.114	0
20808.263	-53.586	-42.289	-55.404	-39.076	0
20808.388	-53.604	-42.245	-55.455	-39.034	0
20808.513	-53.560	-42.219	-55.426	-39.001	0
20808.638	-53.459	-42.163	-55.328	-38.949	0
20808.763	-53.340	-42.098	-55.210	-38.909	0
20808.888	-53.399	-42.107	-55.326	-38.967	0
20809.013	-53.457	-42.116	-55.436	-39.013	0
20809.138	-53.515	-42.125	-55.541	-39.045	0
20809.263	-53.574	-42.134	-55.642	-39.065	0
20809.388	-53.632	-42.143	-55.737	-39.072	0
20809.513	-53.690	-42.152	-55.827	-39.066	0
20809.638	-53.749	-42.161	-55.914	-39.048	0
20809.763	-53.807	-42.170	-55.999	-39.020	0
20809.888	-53.865	-42.179	-56.081	-38.982	0
20810.013	-53.924	-42.189	-56.162	-38.934	0
20810.138	-53.982	-42.198	-56.241	-38.877	0
20810.263	-54.040	-42.207	-56.318	-38.810	0
20810.388	-54.098	-42.216	-56.397	-38.738	0
20810.513	-54.157	-42.225	-56.477	-38.665	0
20810.638	-54.215	-42.234	-56.560	-38.589	0
20810.763	-54.273	-42.243	-56.647	-38.508	0
20810.888	-54.331	-42.276	-56.736	-38.445	0
20811.013	-54.385	-42.365	-56.829	-38.431	0
20811.138	-54.383	-42.506	-56.860	-38.467	0
20811.263	-54.360	-42.665	-56.874	-38.518	0
20811.388	-54.288	-42.731	-56.826	-38.472	0
20811.513	-54.214	-42.795	-56.776	-38.423	0
20811.638	-54.140	-42.859	-56.724	-38.377	0
20811.763	-54.067	-42.923	-56.670	-38.334	0
20811.888	-53.993	-42.987	-56.617	-38.293	0
20812.013	-53.919	-43.051	-56.565	-38.254	0
20812.138	-53.845	-43.116	-56.512	-38.228	0
20812.263	-53.771	-43.180	-56.459	-38.214	0
20812.388	-53.698	-43.244	-56.406	-38.211	0
20812.513	-53.625	-43.307	-56.356	-38.215	0
