Tag:	49802
Reference:	tu22_9444_05
Coast Distance (km): 	30.0
Estimation Time Delay (days): 	0.0

CNES Day	Lon	Lat	LonCor	LatCor	Delay
20294.299	-53.946	5.745	-53.946	5.745	0
20294.424	-53.954	5.741	-54.928	4.771	0
20294.549	-53.963	5.738	-54.936	4.767	0
20294.674	-53.971	5.734	-54.946	4.762	0
20294.799	-53.962	5.778	-54.938	4.804	0
20294.924	-53.944	5.844	-54.923	4.867	0
20295.049	-53.925	5.911	-54.910	4.929	0
20295.174	-53.907	5.977	-54.897	4.991	0
20295.299	-53.889	6.044	-54.885	5.051	0
20295.424	-53.871	6.110	-54.873	5.111	0
20295.549	-53.853	6.177	-54.850	5.177	0
20295.674	-53.834	6.243	-54.828	5.241	0
20295.799	-53.816	6.310	-54.806	5.303	0
20295.924	-53.798	6.376	-54.784	5.364	0
20296.049	-53.780	6.443	-54.761	5.424	0
20296.174	-53.762	6.509	-54.738	5.483	0
20296.299	-53.744	6.575	-54.714	5.540	0
20296.424	-53.725	6.642	-54.688	5.596	0
20296.549	-53.707	6.708	-54.657	5.649	0
20296.674	-53.689	6.775	-54.623	5.699	0
20296.799	-53.671	6.841	-54.583	5.747	0
20296.924	-53.653	6.908	-54.539	5.793	0
20297.049	-53.635	6.974	-54.491	5.836	0
20297.174	-53.616	7.041	-54.438	5.879	0
20297.299	-53.598	7.107	-54.381	5.921	0
20297.424	-53.580	7.173	-54.319	5.962	0
20297.549	-53.562	7.240	-54.254	6.004	0
20297.674	-53.544	7.306	-54.185	6.045	0
20297.799	-53.526	7.373	-54.113	6.089	0
20297.924	-53.572	7.458	-54.104	6.153	0
20298.049	-53.620	7.544	-54.093	6.218	0
20298.174	-53.668	7.630	-54.078	6.282	0
20298.299	-53.717	7.716	-54.061	6.346	0
20298.424	-53.765	7.802	-54.044	6.409	0
20298.549	-53.813	7.888	-54.025	6.472	0
20298.674	-53.860	7.974	-54.004	6.534	0
20298.799	-53.904	8.061	-53.981	6.596	0
20298.924	-53.947	8.148	-53.958	6.658	0
20299.049	-53.991	8.235	-53.938	6.720	0
20299.174	-54.034	8.322	-53.919	6.781	0
20299.299	-54.078	8.408	-53.904	6.842	0
20299.424	-54.121	8.495	-53.894	6.904	0
20299.549	-54.165	8.582	-53.889	6.966	0
20299.674	-54.208	8.669	-53.890	7.027	0
20299.799	-54.216	8.752	-53.859	7.084	0
20299.924	-54.223	8.835	-53.832	7.142	0
20300.049	-54.180	8.903	-53.760	7.185	0
20300.174	-54.111	8.962	-53.667	7.225	0
20300.299	-54.042	9.021	-53.580	7.271	0
20300.424	-53.973	9.083	-53.498	7.326	0
20300.549	-53.904	9.147	-53.422	7.388	0
20300.674	-53.835	9.210	-53.352	7.456	0
20300.799	-53.766	9.273	-53.286	7.529	0
20300.924	-53.698	9.336	-53.224	7.605	0
20301.049	-53.629	9.400	-53.167	7.685	0
20301.174	-53.560	9.463	-53.113	7.767	0
20301.299	-53.491	9.526	-53.062	7.851	0
20301.424	-53.422	9.589	-53.012	7.934	0
20301.549	-53.354	9.653	-52.962	8.018	0
20301.674	-53.285	9.716	-52.913	8.100	0
20301.799	-53.216	9.779	-52.864	8.183	0
20301.924	-53.147	9.842	-52.816	8.267	0
20302.049	-53.078	9.906	-52.770	8.351	0
20302.174	-53.010	9.969	-52.724	8.435	0
20302.299	-52.941	10.032	-52.676	8.519	0
20302.424	-52.911	10.064	-52.667	8.571	0
20302.549	-52.976	10.020	-52.753	8.546	0
20302.674	-53.042	9.976	-52.841	8.523	0
20302.799	-53.107	9.932	-52.931	8.501	0
20302.924	-53.172	9.888	-53.022	8.481	0
20303.049	-53.209	9.866	-53.086	8.482	0
20303.174	-53.187	9.885	-53.091	8.527	0
20303.299	-53.165	9.905	-53.095	8.571	0
20303.424	-53.144	9.925	-53.098	8.614	0
20303.549	-53.124	9.967	-53.102	8.680	0
20303.674	-53.105	10.013	-53.106	8.750	0
20303.799	-53.085	10.059	-53.111	8.818	0
20303.924	-53.088	10.096	-53.138	8.875	0
20304.049	-53.209	10.080	-53.285	8.879	0
20304.174	-53.330	10.064	-53.435	8.882	0
20304.299	-53.382	10.091	-53.518	8.926	0
20304.424	-53.317	10.190	-53.484	9.043	0
20304.549	-53.251	10.290	-53.450	9.157	0
20304.674	-53.186	10.390	-53.411	9.270	0
20304.799	-53.120	10.490	-53.367	9.379	0
20304.924	-53.091	10.586	-53.355	9.484	0
20305.049	-53.155	10.674	-53.433	9.577	0
20305.174	-53.219	10.763	-53.509	9.668	0
20305.299	-53.284	10.851	-53.583	9.758	0
20305.424	-53.348	10.939	-53.654	9.846	0
20305.549	-53.340	11.006	-53.649	9.911	0
20305.674	-53.151	11.019	-53.457	9.922	0
20305.799	-53.060	11.050	-53.361	9.951	0
20305.924	-53.093	11.104	-53.389	10.001	0
20306.049	-53.125	11.158	-53.416	10.052	0
20306.174	-53.158	11.212	-53.441	10.101	0
20306.299	-53.191	11.266	-53.466	10.150	0
20306.424	-53.169	11.297	-53.433	10.177	0
20306.549	-52.953	11.245	-53.204	10.121	0
20306.674	-52.763	11.380	-53.002	10.253	0
20306.799	-52.579	11.563	-52.809	10.436	0
20306.924	-52.395	11.746	-52.618	10.624	0
20307.049	-52.211	11.928	-52.430	10.815	0
20307.174	-52.028	12.111	-52.241	11.007	0
20307.299	-52.111	12.177	-52.323	11.083	0
20307.424	-52.369	12.166	-52.582	11.083	0
20307.549	-52.627	12.156	-52.841	11.083	0
20307.674	-52.885	12.145	-53.099	11.083	0
20307.799	-53.143	12.135	-53.356	11.083	0
20307.924	-53.232	12.154	-53.437	11.111	0
20308.049	-53.238	12.190	-53.434	11.155	0
20308.174	-53.252	12.232	-53.438	11.206	0
20308.299	-53.266	12.275	-53.442	11.257	0
20308.424	-53.279	12.317	-53.445	11.309	0
20308.549	-53.293	12.360	-53.449	11.360	0
20308.674	-53.306	12.402	-53.452	11.412	0
20308.799	-53.320	12.445	-53.455	11.464	0
20308.924	-53.334	12.487	-53.459	11.517	0
20309.049	-53.347	12.530	-53.462	11.569	0
20309.174	-53.361	12.572	-53.465	11.622	0
20309.299	-53.375	12.615	-53.469	11.674	0
20309.424	-53.389	12.658	-53.473	11.727	0
20309.549	-53.404	12.702	-53.478	11.780	0
20309.674	-53.419	12.745	-53.482	11.833	0
20309.799	-53.434	12.788	-53.487	11.885	0
20309.924	-53.445	12.834	-53.489	11.939	0
20310.049	-53.450	12.882	-53.484	11.996	0
20310.174	-53.455	12.931	-53.480	12.052	0
20310.299	-53.460	12.980	-53.476	12.108	0
20310.424	-53.465	13.028	-53.473	12.164	0
20310.549	-53.470	13.077	-53.470	12.219	0
20310.674	-53.476	13.126	-53.467	12.273	0
20310.799	-53.481	13.174	-53.464	12.328	0
20310.924	-53.486	13.223	-53.462	12.381	0
20311.049	-53.492	13.311	-53.459	12.475	0
20311.174	-53.497	13.402	-53.457	12.570	0
20311.299	-53.503	13.493	-53.455	12.665	0
20311.424	-53.517	13.575	-53.461	12.750	0
20311.549	-53.545	13.640	-53.481	12.819	0
20311.674	-53.572	13.706	-53.500	12.887	0
20311.799	-53.599	13.770	-53.518	12.954	0
20311.924	-53.622	13.833	-53.531	13.018	0
20312.049	-53.644	13.896	-53.544	13.083	0
20312.174	-53.667	13.958	-53.554	13.147	0
20312.299	-53.690	14.021	-53.564	13.212	0
20312.424	-53.712	14.084	-53.573	13.276	0
20312.549	-53.735	14.146	-53.580	13.340	0
20312.674	-53.758	14.209	-53.586	13.405	0
20312.799	-53.780	14.271	-53.591	13.469	0
20312.924	-53.803	14.334	-53.595	13.534	0
20313.049	-53.826	14.397	-53.599	13.598	0
20313.174	-53.848	14.459	-53.601	13.663	0
20313.299	-53.870	14.528	-53.604	13.733	0
20313.424	-53.892	14.599	-53.608	13.806	0
20313.549	-53.914	14.671	-53.613	13.878	0
20313.674	-53.936	14.742	-53.619	13.949	0
20313.799	-53.958	14.813	-53.627	14.019	0
20313.924	-53.980	14.885	-53.637	14.088	0
20314.049	-54.002	14.956	-53.650	14.156	0
20314.174	-54.008	15.003	-53.649	14.198	0
20314.299	-54.013	15.051	-53.649	14.240	0
20314.424	-54.019	15.098	-53.652	14.281	0
20314.549	-54.021	15.149	-53.652	14.325	0
20314.674	-54.017	15.206	-53.648	14.375	0
20314.799	-54.014	15.263	-53.646	14.424	0
20314.924	-54.011	15.319	-53.646	14.472	0
20315.049	-54.007	15.376	-53.647	14.520	0
20315.174	-54.004	15.433	-53.650	14.567	0
20315.299	-54.000	15.490	-53.654	14.614	0
20315.424	-53.988	15.551	-53.649	14.664	0
20315.549	-53.955	15.621	-53.623	14.724	0
20315.674	-53.948	15.682	-53.623	14.775	0
20315.799	-53.946	15.741	-53.629	14.823	0
20315.924	-53.943	15.800	-53.635	14.870	0
20316.049	-53.941	15.859	-53.639	14.917	0
20316.174	-53.939	15.918	-53.643	14.963	0
20316.299	-53.937	15.978	-53.645	15.009	0
20316.424	-53.934	16.037	-53.647	15.055	0
20316.549	-53.932	16.096	-53.648	15.100	0
20316.674	-53.930	16.155	-53.647	15.144	0
20316.799	-53.928	16.219	-53.646	15.193	0
20316.924	-53.927	16.297	-53.645	15.256	0
20317.049	-53.926	16.375	-53.642	15.317	0
20317.174	-53.925	16.453	-53.638	15.379	0
20317.299	-53.924	16.531	-53.633	15.439	0
20317.424	-53.923	16.609	-53.626	15.500	0
20317.549	-53.921	16.687	-53.617	15.560	0
20317.674	-53.912	16.756	-53.597	15.611	0
20317.799	-53.897	16.817	-53.570	15.655	0
20317.924	-53.881	16.878	-53.542	15.699	0
20318.049	-53.866	16.940	-53.512	15.745	0
20318.174	-53.850	17.001	-53.482	15.791	0
20318.299	-53.836	17.063	-53.451	15.838	0
20318.424	-53.830	17.127	-53.430	15.890	0
20318.549	-53.824	17.192	-53.409	15.943	0
20318.674	-53.818	17.256	-53.387	15.998	0
20318.799	-53.812	17.321	-53.366	16.054	0
20318.924	-53.807	17.386	-53.344	16.111	0
20319.049	-53.801	17.450	-53.323	16.170	0
20319.174	-53.795	17.515	-53.303	16.230	0
20319.299	-53.789	17.579	-53.283	16.291	0
20319.424	-53.783	17.644	-53.264	16.353	0
20319.549	-53.778	17.708	-53.245	16.416	0
20319.674	-53.772	17.773	-53.227	16.481	0
20319.799	-53.766	17.838	-53.210	16.545	0
20319.924	-53.760	17.902	-53.194	16.611	0
20320.049	-53.804	17.975	-53.229	16.685	0
20320.174	-53.908	18.058	-53.329	16.770	0
20320.299	-54.010	18.140	-53.426	16.853	0
20320.424	-54.021	18.199	-53.428	16.914	0
20320.549	-54.032	18.258	-53.430	16.974	0
20320.674	-54.042	18.317	-53.433	17.034	0
20320.799	-54.053	18.376	-53.436	17.094	0
20320.924	-54.063	18.435	-53.440	17.154	0
20321.049	-54.074	18.494	-53.443	17.213	0
20321.174	-54.084	18.553	-53.447	17.271	0
20321.299	-54.095	18.612	-53.451	17.329	0
20321.424	-54.106	18.671	-53.456	17.386	0
20321.549	-54.116	18.730	-53.461	17.443	0
20321.674	-54.127	18.789	-53.467	17.500	0
20321.799	-54.130	18.849	-53.466	17.556	0
20321.924	-54.118	18.911	-53.449	17.614	0
20322.049	-54.106	18.972	-53.434	17.672	0
20322.174	-54.095	19.033	-53.420	17.729	0
20322.299	-54.083	19.094	-53.408	17.786	0
20322.424	-54.071	19.155	-53.397	17.844	0
20322.549	-54.059	19.216	-53.388	17.902	0
20322.674	-54.048	19.277	-53.381	17.959	0
20322.799	-54.036	19.338	-53.375	18.018	0
20322.924	-54.024	19.399	-53.371	18.076	0
20323.049	-54.012	19.460	-53.368	18.135	0
20323.174	-54.001	19.521	-53.367	18.195	0
20323.299	-54.011	19.607	-53.392	18.280	0
20323.424	-54.064	19.742	-53.463	18.413	0
20323.549	-54.084	19.817	-53.499	18.486	0
20323.674	-54.092	19.871	-53.525	18.537	0
20323.799	-54.099	19.925	-53.551	18.589	0
20323.924	-54.107	19.980	-53.576	18.641	0
20324.049	-54.115	20.034	-53.601	18.692	0
20324.174	-54.123	20.089	-53.625	18.744	0
20324.299	-54.130	20.143	-53.649	18.796	0
20324.424	-54.138	20.198	-53.673	18.848	0
20324.549	-54.146	20.252	-53.696	18.900	0
20324.674	-54.154	20.306	-53.718	18.953	0
20324.799	-54.161	20.361	-53.740	19.006	0
20324.924	-54.169	20.415	-53.760	19.060	0
20325.049	-54.105	20.416	-53.704	19.060	0
20325.174	-54.019	20.399	-53.626	19.044	0
20325.299	-53.933	20.383	-53.548	19.028	0
20325.424	-53.882	20.442	-53.509	19.087	0
20325.549	-53.882	20.488	-53.523	19.133	0
20325.674	-53.882	20.534	-53.536	19.179	0
20325.799	-53.887	20.588	-53.555	19.233	0
20325.924	-53.896	20.646	-53.576	19.292	0
20326.049	-53.905	20.704	-53.596	19.352	0
20326.174	-53.914	20.762	-53.615	19.412	0
20326.299	-53.923	20.820	-53.633	19.472	0
20326.424	-53.932	20.879	-53.649	19.533	0
20326.549	-53.941	20.937	-53.665	19.594	0
20326.674	-53.950	20.995	-53.679	19.655	0
20326.799	-53.959	21.053	-53.692	19.715	0
20326.924	-53.969	21.111	-53.704	19.775	0
20327.049	-53.978	21.169	-53.715	19.834	0
20327.174	-53.987	21.228	-53.724	19.892	0
20327.299	-53.958	21.270	-53.691	19.934	0
20327.424	-53.905	21.302	-53.632	19.964	0
20327.549	-53.852	21.334	-53.572	19.991	0
20327.674	-53.964	21.373	-53.687	20.022	0
20327.799	-54.148	21.415	-53.878	20.060	0
20327.924	-54.213	21.461	-53.941	20.108	0
20328.049	-54.153	21.511	-53.870	20.163	0
20328.174	-54.094	21.561	-53.799	20.217	0
20328.299	-54.035	21.611	-53.728	20.269	0
20328.424	-53.975	21.662	-53.656	20.320	0
20328.549	-53.981	21.782	-53.653	20.439	0
20328.674	-53.991	21.891	-53.654	20.549	0
20328.799	-53.978	21.938	-53.630	20.596	0
20328.924	-53.965	21.984	-53.604	20.643	0
20329.049	-53.952	22.031	-53.579	20.689	0
20329.174	-53.939	22.077	-53.553	20.736	0
20329.299	-53.926	22.124	-53.528	20.782	0
20329.424	-53.913	22.170	-53.504	20.828	0
20329.549	-53.900	22.217	-53.481	20.873	0
20329.674	-53.887	22.264	-53.460	20.919	0
20329.799	-53.874	22.310	-53.439	20.964	0
20329.924	-53.860	22.357	-53.420	21.009	0
20330.049	-53.847	22.403	-53.403	21.053	0
20330.174	-53.877	22.461	-53.433	21.108	0
20330.299	-53.928	22.524	-53.489	21.169	0
20330.424	-53.979	22.587	-53.547	21.232	0
20330.549	-54.031	22.650	-53.608	21.295	0
20330.674	-54.082	22.714	-53.671	21.359	0
20330.799	-54.097	22.765	-53.697	21.412	0
20330.924	-54.105	22.804	-53.718	21.454	0
20331.049	-54.113	22.844	-53.740	21.496	0
20331.174	-54.121	22.883	-53.764	21.538	0
20331.299	-54.129	22.923	-53.788	21.579	0
20331.424	-54.130	22.961	-53.807	21.620	0
20331.549	-54.127	22.998	-53.822	21.659	0
20331.674	-54.123	23.036	-53.836	21.699	0
20331.799	-54.120	23.073	-53.850	21.738	0
20331.924	-54.116	23.110	-53.864	21.777	0
20332.049	-54.113	23.148	-53.877	21.816	0
20332.174	-54.071	23.182	-53.849	21.852	0
20332.299	-54.028	23.216	-53.818	21.887	0
20332.424	-53.984	23.257	-53.787	21.927	0
20332.549	-53.941	23.310	-53.755	21.980	0
20332.674	-53.898	23.364	-53.721	22.031	0
20332.799	-53.854	23.417	-53.684	22.083	0
20332.924	-53.819	23.469	-53.654	22.132	0
20333.049	-53.918	23.494	-53.767	22.155	0
20333.174	-53.909	23.530	-53.763	22.188	0
20333.299	-53.899	23.567	-53.755	22.223	0
20333.424	-53.887	23.607	-53.744	22.261	0
20333.549	-53.874	23.647	-53.732	22.299	0
20333.674	-53.861	23.687	-53.719	22.338	0
20333.799	-53.848	23.727	-53.705	22.377	0
20333.924	-53.836	23.768	-53.690	22.416	0
20334.049	-53.900	23.821	-53.758	22.469	0
20334.174	-53.950	23.876	-53.808	22.524	0
20334.299	-53.973	23.929	-53.829	22.576	0
20334.424	-53.971	23.976	-53.823	22.624	0
20334.549	-53.970	24.024	-53.818	22.673	0
20334.674	-53.969	24.071	-53.814	22.722	0
20334.799	-53.968	24.119	-53.811	22.771	0
20334.924	-53.967	24.166	-53.808	22.820	0
20335.049	-53.966	24.214	-53.807	22.870	0
20335.174	-53.964	24.262	-53.807	22.921	0
20335.299	-53.963	24.309	-53.809	22.971	0
20335.424	-53.981	24.382	-53.833	23.048	0
20335.549	-53.992	24.451	-53.852	23.122	0
20335.674	-54.004	24.520	-53.873	23.196	0
20335.799	-53.995	24.584	-53.874	23.265	0
20335.924	-53.976	24.644	-53.862	23.331	0
20336.049	-53.956	24.704	-53.851	23.397	0
20336.174	-53.931	24.755	-53.835	23.455	0
20336.299	-53.895	24.792	-53.808	23.497	0
20336.424	-53.870	24.827	-53.791	23.538	0
20336.549	-53.863	24.861	-53.794	23.575	0
20336.674	-53.856	24.894	-53.797	23.612	0
20336.799	-53.850	24.927	-53.799	23.650	0
20336.924	-53.843	24.961	-53.800	23.687	0
20337.049	-53.836	24.994	-53.801	23.723	0
20337.174	-53.829	25.027	-53.801	23.760	0
20337.299	-53.823	25.061	-53.800	23.797	0
20337.424	-53.816	25.094	-53.799	23.833	0
20337.549	-53.809	25.127	-53.798	23.870	0
20337.674	-53.803	25.161	-53.795	23.906	0
20337.799	-53.796	25.194	-53.791	23.942	0
20337.924	-53.808	25.287	-53.808	24.036	0
20338.049	-53.827	25.400	-53.830	24.153	0
20338.174	-53.866	25.453	-53.871	24.208	0
20338.299	-53.906	25.484	-53.912	24.241	0
20338.424	-53.939	25.524	-53.947	24.285	0
20338.549	-53.973	25.564	-53.981	24.330	0
20338.674	-54.006	25.604	-54.015	24.375	0
20338.799	-54.039	25.644	-54.048	24.420	0
20338.924	-54.072	25.684	-54.080	24.466	0
20339.049	-54.106	25.724	-54.113	24.512	0
20339.174	-54.139	25.764	-54.145	24.558	0
20339.299	-54.172	25.804	-54.178	24.605	0
20339.424	-54.206	25.844	-54.210	24.652	0
20339.549	-54.239	25.884	-54.243	24.699	0
20339.674	-54.272	25.924	-54.276	24.746	0
20339.799	-54.306	25.964	-54.309	24.794	0
20339.924	-54.339	26.004	-54.343	24.842	0
20340.049	-54.372	26.044	-54.376	24.890	0
20340.174	-54.405	26.084	-54.410	24.939	0
20340.299	-54.439	26.124	-54.444	24.987	0
20340.424	-54.482	26.156	-54.489	25.028	0
20340.549	-54.532	26.183	-54.541	25.064	0
20340.674	-54.581	26.218	-54.592	25.109	0
20340.799	-54.629	26.254	-54.643	25.154	0
20340.924	-54.678	26.289	-54.695	25.201	0
20341.049	-54.727	26.325	-54.746	25.247	0
20341.174	-54.776	26.360	-54.798	25.293	0
20341.299	-54.824	26.395	-54.849	25.339	0
20341.424	-54.871	26.432	-54.899	25.385	0
20341.549	-54.816	26.543	-54.837	25.505	0
20341.674	-54.759	26.653	-54.771	25.624	0
20341.799	-54.662	26.764	-54.660	25.743	0
20341.924	-54.676	26.774	-54.667	25.758	0
20342.049	-54.701	26.774	-54.688	25.763	0
20342.174	-54.726	26.773	-54.709	25.768	0
20342.299	-54.723	26.767	-54.699	25.767	0
20342.424	-54.727	26.774	-54.697	25.779	0
20342.549	-54.774	26.838	-54.741	25.848	0
20342.674	-54.820	26.902	-54.785	25.917	0
20342.799	-54.867	26.967	-54.830	25.984	0
20342.924	-54.913	27.031	-54.874	26.050	0
20343.049	-54.960	27.096	-54.919	26.115	0
20343.174	-54.986	27.153	-54.942	26.173	0
20343.299	-55.002	27.208	-54.953	26.227	0
20343.424	-55.019	27.262	-54.964	26.280	0
20343.549	-55.035	27.317	-54.975	26.333	0
20343.674	-55.058	27.371	-54.993	26.384	0
20343.799	-55.110	27.423	-55.045	26.433	0
20343.924	-55.163	27.474	-55.098	26.481	0
20344.049	-55.216	27.526	-55.151	26.529	0
20344.174	-55.268	27.578	-55.206	26.578	0
20344.299	-55.321	27.630	-55.262	26.626	0
20344.424	-55.374	27.682	-55.319	26.676	0
20344.549	-55.426	27.734	-55.377	26.726	0
20344.674	-55.479	27.785	-55.435	26.776	0
20344.799	-55.544	27.824	-55.508	26.813	0
20344.924	-55.651	27.821	-55.628	26.809	0
20345.049	-55.758	27.817	-55.746	26.806	0
20345.174	-55.865	27.814	-55.864	26.802	0
20345.299	-55.971	27.810	-55.979	26.797	0
20345.424	-56.078	27.807	-56.093	26.792	0
20345.549	-56.185	27.803	-56.206	26.786	0
20345.674	-56.292	27.800	-56.318	26.779	0
20345.799	-56.270	27.871	-56.284	26.846	0
20345.924	-56.193	27.973	-56.189	26.946	0
20346.049	-56.115	28.076	-56.098	27.048	0
20346.174	-56.038	28.178	-56.009	27.152	0
20346.299	-55.961	28.281	-55.924	27.257	0
20346.424	-55.943	28.322	-55.907	27.301	0
20346.549	-55.974	28.313	-55.947	27.295	0
20346.674	-56.041	28.382	-56.026	27.368	0
20346.799	-56.089	28.453	-56.084	27.442	0
20346.924	-56.067	28.504	-56.065	27.495	0
20347.049	-56.046	28.555	-56.045	27.549	0
20347.174	-56.063	28.602	-56.070	27.598	0
20347.299	-56.101	28.648	-56.119	27.646	0
20347.424	-56.140	28.694	-56.168	27.693	0
20347.549	-56.178	28.739	-56.216	27.740	0
20347.674	-56.216	28.785	-56.263	27.787	0
20347.799	-56.255	28.831	-56.310	27.834	0
20347.924	-56.293	28.876	-56.356	27.881	0
20348.049	-56.332	28.931	-56.402	27.936	0
20348.174	-56.370	29.006	-56.447	28.013	0
20348.299	-56.410	29.057	-56.491	28.066	0
20348.424	-56.450	29.096	-56.535	28.105	0
20348.549	-56.490	29.135	-56.578	28.145	0
20348.674	-56.532	29.173	-56.622	28.185	0
20348.799	-56.594	29.209	-56.688	28.222	0
20348.924	-56.657	29.244	-56.754	28.260	0
20349.049	-56.719	29.280	-56.819	28.298	0
20349.174	-56.787	29.339	-56.891	28.359	0
20349.299	-56.849	29.396	-56.957	28.417	0
20349.424	-56.887	29.433	-56.996	28.455	0
20349.549	-56.925	29.469	-57.035	28.492	0
20349.674	-56.963	29.506	-57.075	28.529	0
20349.799	-56.995	29.560	-57.109	28.582	0
20349.924	-57.029	29.614	-57.145	28.636	0
20350.049	-57.067	29.673	-57.190	28.693	0
20350.174	-57.106	29.731	-57.236	28.749	0
20350.299	-57.145	29.789	-57.285	28.804	0
20350.424	-57.184	29.848	-57.336	28.859	0
20350.549	-57.222	29.906	-57.389	28.913	0
20350.674	-57.261	29.964	-57.443	28.968	0
20350.799	-57.297	30.013	-57.496	29.013	0
20350.924	-57.331	30.053	-57.547	29.050	0
20351.049	-57.365	30.092	-57.599	29.086	0
20351.174	-57.399	30.132	-57.651	29.123	0
20351.299	-57.432	30.172	-57.703	29.160	0
20351.424	-57.526	30.225	-57.823	29.211	0
20351.549	-57.651	30.285	-57.978	29.270	0
20351.674	-57.616	30.380	-57.949	29.364	0
20351.799	-57.581	30.474	-57.920	29.460	0
20351.924	-57.546	30.569	-57.889	29.556	0
20352.049	-57.572	30.645	-57.927	29.634	0
20352.174	-57.670	30.697	-58.044	29.689	0
20352.299	-57.767	30.750	-58.160	29.746	0
20352.424	-57.861	30.785	-58.269	29.785	0
20352.549	-57.943	30.757	-58.364	29.762	0
20352.674	-57.997	30.787	-58.428	29.795	0
20352.799	-58.031	30.857	-58.466	29.869	0
20352.924	-58.076	30.892	-58.515	29.907	0
20353.049	-58.121	30.926	-58.563	29.945	0
20353.174	-58.167	30.961	-58.609	29.983	0
20353.299	-58.239	31.003	-58.685	30.028	0
20353.424	-58.332	31.061	-58.783	30.089	0
20353.549	-58.426	31.118	-58.879	30.151	0
20353.674	-58.510	31.188	-58.962	30.225	0
