Tag:	49802
Reference:	tu22_9444_05
Coast Distance (km): 	30.0
Estimation Time Delay (days): 	0.0

CNES Day	Xg	Yg	Xs	Ys	Delay
20294.299	0.000	0.000	0.000	0.000	0
20294.424	1.437	6.576	999.000	999.000	0
20294.549	2.873	13.152	999.000	999.000	0
20294.674	4.310	19.728	999.000	999.000	0
20294.799	6.010	26.188	999.000	999.000	0
20294.924	7.710	32.649	999.000	999.000	0
20295.049	9.410	39.109	999.000	999.000	0
20295.174	11.110	45.569	15.573	44.901	0
20295.299	12.810	52.029	17.686	51.119	0
20295.424	14.510	58.489	19.693	57.142	0
20295.549	16.210	64.950	21.713	63.019	0
20295.674	17.910	71.410	23.808	68.768	0
20295.799	19.609	77.870	25.975	74.399	0
20295.924	21.309	84.330	28.218	79.912	0
20296.049	23.009	90.791	30.544	85.315	0
20296.174	24.709	97.251	32.959	90.610	0
20296.299	26.409	103.711	35.812	95.622	0
20296.424	28.109	110.171	39.115	100.359	0
20296.549	29.809	116.632	42.879	104.828	0
20296.674	31.509	123.092	47.095	109.050	0
20296.799	33.209	129.552	51.738	113.060	0
20296.924	34.909	136.012	56.800	116.918	0
20297.049	36.609	142.473	62.315	120.686	0
20297.174	38.309	148.933	68.259	124.384	0
20297.299	40.008	155.393	74.608	128.031	0
20297.424	41.708	161.853	81.342	131.647	0
20297.549	43.408	168.313	88.442	135.253	0
20297.674	45.108	174.774	95.825	138.969	0
20297.799	46.808	181.234	103.446	142.881	0
20297.924	41.663	190.703	104.451	150.012	0
20298.049	36.281	200.277	105.648	157.215	0
20298.174	30.899	209.851	107.348	164.330	0
20298.299	25.517	219.425	109.218	171.433	0
20298.424	20.135	228.999	111.138	178.497	0
20298.549	14.752	238.573	113.182	185.464	0
20298.674	9.741	248.207	115.743	192.362	0
20298.799	4.731	257.842	118.161	199.248	0
20298.924	-0.142	267.499	120.583	206.126	0
20299.049	-4.321	277.097	123.556	212.930	0
20299.174	-8.501	286.695	126.314	219.745	0
20299.299	-12.772	296.302	128.502	226.596	0
20299.424	-15.791	305.601	131.409	233.181	0
20299.549	-20.950	315.365	131.625	240.376	0
20299.674	-25.170	324.947	132.204	247.346	0
20299.799	-29.391	334.529	132.237	254.238	0
20299.924	-25.604	342.350	139.734	259.283	0
20300.049	-21.587	350.097	146.956	264.684	0
20300.174	-17.349	357.772	153.855	270.457	0
20300.299	-12.831	365.358	160.374	276.624	0
20300.424	-5.299	372.149	169.238	282.492	0
20300.549	2.233	378.940	177.447	289.022	0
20300.674	9.764	385.731	185.090	296.157	0
20300.799	17.296	392.522	192.235	303.816	0
20300.924	24.828	399.313	198.919	311.931	0
20301.049	32.360	406.104	205.164	320.429	0
20301.174	39.891	412.896	211.007	329.212	0
20301.299	47.423	419.687	216.558	338.138	0
20301.424	54.955	426.478	221.884	347.133	0
20301.549	62.486	433.269	227.205	356.098	0
20301.674	70.018	440.060	232.546	365.018	0
20301.799	77.550	446.851	237.786	373.976	0
20301.924	85.082	453.642	242.887	383.002	0
20302.049	92.613	460.434	247.846	392.087	0
20302.174	100.145	467.225	252.740	401.231	0
20302.299	107.677	474.016	257.726	410.398	0
20302.424	115.208	480.807	262.847	419.489	0
20302.549	108.031	475.984	253.501	416.768	0
20302.674	103.217	472.888	246.251	415.995	0
20302.799	99.072	470.284	239.546	415.844	0
20302.924	95.645	468.339	233.481	416.436	0
20303.049	94.016	468.355	229.162	419.040	0
20303.174	92.275	468.254	224.727	421.523	0
20303.299	90.363	467.992	220.110	423.843	0
20303.424	89.051	468.290	216.081	426.717	0
20303.549	91.327	472.037	215.641	433.024	0
20303.674	93.592	475.897	215.231	439.380	0
20303.799	95.842	479.935	214.821	445.832	0
20303.924	96.135	486.381	212.465	454.600	0
20304.049	95.685	493.351	209.287	463.685	0
20304.174	96.038	499.643	206.803	471.851	0
20304.299	96.520	505.852	204.592	479.741	0
20304.424	97.207	511.931	202.781	487.308	0
20304.549	97.336	518.366	200.606	495.041	0
20304.674	97.280	524.920	198.432	502.693	0
20304.799	97.500	532.015	196.715	510.702	0
20304.924	97.308	538.304	194.801	517.702	0
20305.049	97.764	545.862	193.816	525.833	0
20305.174	98.220	553.421	193.174	533.799	0
20305.299	98.676	560.979	192.861	541.604	0
20305.424	99.132	568.538	192.873	549.249	0
20305.549	99.588	576.096	193.195	556.747	0
20305.674	100.044	583.655	193.769	564.157	0
20305.799	98.887	590.475	192.987	570.707	0
20305.924	97.729	597.295	192.409	577.161	0
20306.049	96.572	604.115	192.033	583.531	0
20306.174	95.415	610.935	191.849	589.833	0
20306.299	94.257	617.754	191.700	596.176	0
20306.424	93.100	624.574	191.587	602.561	0
20306.549	91.943	631.394	191.512	608.993	0
20306.674	90.785	638.214	191.465	615.488	0
20306.799	89.628	645.034	191.438	622.070	0
20306.924	88.471	651.854	191.398	628.755	0
20307.049	87.313	658.674	191.328	635.556	0
20307.174	86.156	665.494	191.232	642.472	0
20307.299	84.999	672.314	191.112	649.504	0
20307.424	83.841	679.134	190.969	656.655	0
20307.549	82.684	685.954	190.811	663.923	0
20307.674	81.527	692.774	190.654	671.295	0
20307.799	80.369	699.594	190.525	678.752	0
20307.924	79.212	706.414	190.422	686.296	0
20308.049	78.055	713.234	190.343	693.925	0
20308.174	76.898	720.054	190.288	701.637	0
20308.299	75.740	726.874	190.245	709.394	0
20308.424	74.224	731.608	189.854	715.107	0
20308.549	72.709	736.342	189.479	720.845	0
20308.674	71.193	741.076	189.116	726.611	0
20308.799	69.677	745.810	188.759	732.407	0
20308.924	68.143	750.558	188.388	738.246	0
20309.049	66.629	755.291	188.036	744.087	0
20309.174	65.114	760.024	187.682	749.919	0
20309.299	63.600	764.757	187.321	755.736	0
20309.424	61.959	769.586	186.826	761.633	0
20309.549	60.318	774.416	186.319	767.513	0
20309.674	58.677	779.245	185.798	773.363	0
20309.799	57.036	784.075	185.263	779.171	0
20309.924	56.504	789.508	185.818	785.542	0
20310.049	55.972	794.941	186.341	791.879	0
20310.174	55.183	800.235	186.571	798.035	0
20310.299	54.079	805.356	186.448	803.972	0
20310.424	53.496	811.566	186.809	810.941	0
20310.549	52.903	818.395	187.114	818.475	0
20310.674	52.319	824.736	187.385	825.458	0
20310.799	51.740	830.257	187.657	831.579	0
20310.924	51.214	836.330	187.992	838.213	0
20311.049	50.688	842.403	188.333	844.809	0
20311.174	49.131	851.456	187.651	854.344	0
20311.299	47.465	860.385	186.852	863.700	0
20311.424	45.717	869.221	185.981	872.907	0
20311.549	43.882	877.959	185.081	881.963	0
20311.674	41.921	886.553	184.107	890.829	0
20311.799	39.266	893.486	182.486	897.999	0
20311.924	36.610	900.420	180.907	905.136	0
20312.049	33.955	907.353	179.456	912.264	0
20312.174	31.300	914.287	178.138	919.387	0
20312.299	28.645	921.220	176.957	926.505	0
20312.424	26.023	928.247	175.949	933.711	0
20312.549	23.501	935.219	175.179	940.859	0
20312.674	20.979	942.191	174.528	948.004	0
20312.799	18.467	949.292	173.984	955.293	0
20312.924	15.955	956.392	173.532	962.595	0
20313.049	13.443	963.492	173.161	969.908	0
20313.174	10.931	970.592	172.866	977.227	0
20313.299	8.419	977.693	172.517	984.511	0
20313.424	5.975	985.642	172.120	992.585	0
20313.549	3.739	993.289	171.797	1000.286	0
20313.674	1.798	1000.503	171.633	1007.474	0
20313.799	-0.145	1007.721	171.334	1014.571	0
20313.924	-2.078	1014.922	170.804	1021.538	0
20314.049	-4.013	1022.128	170.009	1028.390	0
20314.174	-6.072	1029.515	168.824	1035.300	0
20314.299	-7.462	1035.923	168.032	1041.102	0
20314.424	-7.530	1041.770	168.324	1046.250	0
20314.549	-7.245	1047.991	168.787	1051.704	0
20314.674	-6.562	1054.378	169.470	1057.262	0
20314.799	-6.111	1060.593	169.743	1062.589	0
20314.924	-5.770	1066.727	169.734	1067.777	0
20315.049	-5.670	1072.660	169.306	1072.706	0
20315.174	-4.934	1079.146	169.344	1078.130	0
20315.299	-4.178	1085.641	169.345	1083.528	0
20315.424	-3.384	1092.154	169.341	1088.907	0
20315.549	-1.012	1099.401	170.870	1094.984	0
20315.674	-0.920	1105.920	170.098	1100.304	0
20315.799	-0.828	1112.440	169.294	1105.563	0
20315.924	-0.993	1118.863	168.269	1110.669	0
20316.049	-0.541	1125.517	167.956	1115.948	0
20316.174	-0.022	1132.195	167.816	1121.202	0
20316.299	0.574	1138.902	167.861	1126.433	0
20316.424	1.302	1145.658	168.147	1131.660	0
20316.549	1.557	1152.238	168.079	1136.660	0
20316.674	1.795	1159.085	168.127	1141.883	0
20316.799	2.033	1165.932	168.277	1147.040	0
20316.924	2.150	1174.624	168.407	1153.976	0
20317.049	2.266	1183.315	168.674	1160.837	0
20317.174	2.383	1192.006	169.091	1167.635	0
20317.299	2.627	1200.549	169.815	1174.248	0
20317.424	3.814	1207.999	171.660	1179.733	0
20317.549	4.637	1215.871	173.292	1185.610	0
20317.674	5.249	1223.987	174.891	1191.718	0
20317.799	5.482	1232.544	176.277	1198.329	0
20317.924	7.204	1239.373	179.320	1203.289	0
20318.049	8.927	1246.202	182.477	1208.336	0
20318.174	10.649	1253.031	185.741	1213.477	0
20318.299	11.437	1260.171	188.148	1219.042	0
20318.424	12.225	1267.311	190.577	1224.755	0
20318.549	13.012	1274.451	193.021	1230.623	0
20318.674	13.800	1281.591	195.474	1236.651	0
20318.799	14.588	1288.731	197.931	1242.827	0
20318.924	15.376	1295.871	200.376	1249.150	0
20319.049	16.164	1303.011	202.760	1255.610	0
20319.174	16.809	1310.198	204.939	1262.255	0
20319.299	16.673	1317.515	206.277	1269.168	0
20319.424	16.537	1324.832	207.565	1276.213	0
20319.549	16.401	1332.149	208.791	1283.381	0
20319.674	16.265	1339.466	209.937	1290.633	0
20319.799	16.129	1346.783	211.006	1297.954	0
20319.924	15.993	1354.099	212.002	1305.339	0
20320.049	15.857	1361.416	212.926	1312.788	0
20320.174	4.183	1370.645	202.261	1322.189	0
20320.299	1.131	1377.690	200.222	1329.392	0
20320.424	-1.921	1384.736	198.149	1336.604	0
20320.549	-4.973	1391.781	196.034	1343.828	0
20320.674	-8.026	1398.826	193.875	1351.058	0
20320.799	-11.078	1405.871	191.688	1358.229	0
20320.924	-10.914	1412.102	192.684	1364.506	0
20321.049	-13.789	1419.270	190.625	1371.682	0
20321.174	-14.715	1425.872	190.477	1378.209	0
20321.299	-15.872	1432.445	190.073	1384.653	0
20321.424	-17.028	1439.019	189.612	1391.038	0
20321.549	-18.185	1445.593	189.082	1397.369	0
20321.674	-19.341	1452.167	188.478	1403.643	0
20321.799	-20.498	1458.740	187.798	1409.857	0
20321.924	-19.173	1465.614	189.523	1416.311	0
20322.049	-17.865	1472.408	191.134	1422.674	0
20322.174	-16.556	1479.201	192.592	1429.043	0
20322.299	-15.248	1485.994	193.893	1435.421	0
20322.424	-13.942	1492.772	195.030	1441.796	0
20322.549	-14.061	1501.180	194.579	1449.822	0
20322.674	-13.537	1508.870	194.558	1457.129	0
20322.799	-12.531	1516.021	194.815	1463.924	0
20322.924	-10.856	1522.392	195.545	1469.979	0
20323.049	-9.659	1529.305	195.627	1476.625	0
20323.174	-8.461	1536.217	195.524	1483.314	0
20323.299	-7.263	1543.129	195.271	1490.036	0
20323.424	-13.189	1558.117	187.804	1504.852	0
20323.549	-14.050	1564.172	185.204	1510.623	0
20323.674	-14.912	1570.227	182.529	1516.386	0
20323.799	-15.774	1576.281	179.818	1522.145	0
20323.924	-16.636	1582.336	177.147	1527.903	0
20324.049	-17.497	1588.391	174.515	1533.663	0
20324.174	-18.717	1595.077	171.563	1540.055	0
20324.299	-20.524	1602.800	168.064	1547.480	0
20324.424	-23.068	1609.966	163.875	1554.342	0
20324.549	-21.429	1614.308	163.984	1558.432	0
20324.674	-19.791	1618.649	164.142	1562.584	0
20324.799	-18.152	1622.990	164.334	1566.792	0
20324.924	-16.514	1627.331	164.557	1571.053	0
20325.049	-14.875	1631.672	164.808	1575.360	0
20325.174	-8.653	1633.239	169.669	1576.934	0
20325.299	-3.019	1635.230	173.882	1578.971	0
20325.424	2.149	1637.560	177.602	1581.347	0
20325.549	6.825	1640.245	180.826	1584.054	0
20325.674	10.809	1643.433	183.387	1587.248	0
20325.799	9.104	1650.420	180.314	1594.235	0
20325.924	7.398	1657.407	177.369	1601.275	0
20326.049	5.693	1664.394	174.544	1608.371	0
20326.174	3.988	1671.381	171.833	1615.527	0
20326.299	2.282	1678.368	169.230	1622.746	0
20326.424	1.509	1684.660	167.702	1629.322	0
20326.549	0.506	1691.136	166.079	1636.111	0
20326.674	0.005	1697.401	165.091	1642.677	0
20326.799	-0.254	1703.563	164.467	1649.051	0
20326.924	-0.513	1709.726	163.963	1655.326	0
20327.049	-0.771	1715.889	163.588	1661.501	0
20327.174	-1.030	1722.051	163.350	1667.578	0
20327.299	-1.289	1728.214	163.251	1673.560	0
20327.424	4.580	1731.796	169.425	1676.872	0
20327.549	3.869	1736.793	169.101	1681.286	0
20327.674	3.107	1742.349	168.823	1686.225	0
20327.799	2.315	1748.512	168.597	1691.818	0
20327.924	1.792	1754.391	168.716	1697.207	0
20328.049	1.387	1760.184	169.026	1702.576	0
20328.174	1.314	1765.805	169.737	1707.829	0
20328.299	0.345	1771.783	169.615	1713.473	0
20328.424	-1.753	1778.343	168.443	1719.770	0
20328.549	-3.860	1785.329	167.334	1726.606	0
20328.674	-2.732	1791.358	169.501	1732.598	0
20328.799	-1.603	1797.387	171.719	1738.569	0
20328.924	-0.474	1803.416	173.983	1744.522	0
20329.049	0.654	1809.445	176.292	1750.463	0
20329.174	1.783	1815.475	178.644	1756.399	0
20329.299	3.142	1820.913	181.160	1761.729	0
20329.424	3.989	1827.723	183.067	1768.407	0
20329.549	5.161	1833.661	185.181	1774.219	0
20329.674	5.691	1839.087	186.528	1779.506	0
20329.799	6.220	1844.512	187.740	1784.782	0
20329.924	6.750	1849.938	188.817	1790.052	0
20330.049	7.279	1855.363	189.685	1795.305	0
20330.174	7.809	1860.789	190.329	1800.538	0
20330.299	2.324	1867.782	184.732	1807.312	0
20330.424	-3.073	1874.728	178.993	1814.161	0
20330.549	-7.249	1881.010	174.249	1820.439	0
20330.674	-10.862	1886.984	169.856	1826.467	0
20330.799	-14.119	1892.766	165.611	1832.368	0
20330.924	-16.989	1898.337	161.554	1838.113	0
20331.049	-19.065	1903.476	158.103	1843.473	0
20331.174	-18.884	1907.660	156.739	1847.905	0
20331.299	-18.960	1911.916	154.989	1852.391	0
20331.424	-18.420	1916.111	153.725	1856.804	0
20331.549	-17.398	1920.263	152.888	1861.152	0
20331.674	-17.003	1924.493	151.441	1865.550	0
20331.799	-17.079	1928.780	149.553	1869.989	0
20331.924	-15.530	1932.879	149.317	1874.232	0
20332.049	-12.869	1937.505	150.230	1878.965	0
20332.174	-10.656	1942.092	150.740	1883.591	0
20332.299	-8.923	1946.466	150.814	1887.950	0
20332.424	-6.560	1951.083	151.558	1892.504	0
20332.549	-3.574	1956.038	153.067	1897.329	0
20332.674	-0.755	1960.981	154.610	1902.094	0
20332.799	1.919	1965.918	156.207	1906.819	0
20332.924	4.398	1970.853	157.799	1911.515	0
20333.049	6.078	1975.471	158.775	1915.876	0
20333.174	6.571	1980.093	158.730	1920.233	0
20333.299	6.772	1984.843	158.553	1924.716	0
20333.424	6.708	1989.633	158.245	1929.264	0
20333.549	6.066	1994.218	157.475	1933.648	0
20333.674	5.419	1998.808	156.804	1938.072	0
20333.799	4.764	2003.403	156.222	1942.526	0
20333.924	4.110	2007.982	155.738	1946.989	0
20334.049	3.602	2012.803	155.499	1951.719	0
20334.174	1.892	2017.949	154.161	1956.801	0
20334.299	1.568	2023.457	154.274	1962.283	0
20334.424	1.245	2028.965	154.340	1967.825	0
20334.549	0.805	2034.401	154.241	1973.353	0
20334.674	0.106	2039.867	153.821	1978.960	0
20334.799	-0.818	2045.738	153.091	1985.005	0
20334.924	-2.121	2051.600	151.893	1991.086	0
20335.049	-2.788	2057.191	151.217	1996.946	0
20335.174	-2.939	2062.300	150.890	2002.374	0
20335.299	-3.114	2068.317	150.379	2008.752	0
20335.424	-3.288	2074.334	149.686	2015.184	0
20335.549	-2.771	2081.366	149.505	2022.686	0
20335.674	-1.915	2088.186	149.475	2030.038	0
20335.799	-0.916	2094.919	149.497	2037.337	0
20335.924	0.191	2101.587	149.569	2044.591	0
20336.049	1.415	2108.186	149.709	2051.788	0
20336.174	2.842	2114.671	150.008	2058.871	0
20336.299	5.098	2120.689	151.098	2065.480	0
20336.424	6.196	2124.348	151.068	2069.682	0
20336.549	7.294	2128.008	151.109	2073.845	0
20336.674	8.393	2131.667	151.213	2077.973	0
20336.799	9.491	2135.327	151.371	2082.085	0
20336.924	10.589	2138.986	151.586	2086.176	0
20337.049	11.558	2142.722	151.727	2090.322	0
20337.174	12.391	2148.343	151.791	2096.336	0
20337.299	12.717	2152.807	151.435	2101.178	0
20337.424	13.201	2157.179	151.322	2105.920	0
20337.549	13.684	2161.551	151.316	2110.637	0
20337.674	14.168	2165.923	151.415	2115.331	0
20337.799	14.651	2170.295	151.610	2120.002	0
20337.924	15.135	2174.667	151.901	2124.644	0
20338.049	12.089	2184.542	148.757	2134.762	0
20338.174	9.004	2194.297	145.782	2144.795	0
20338.299	5.186	2198.620	142.171	2149.445	0
20338.424	1.368	2202.943	138.589	2154.173	0
20338.549	-2.450	2207.266	135.038	2158.977	0
20338.674	-6.268	2211.589	131.529	2163.845	0
20338.799	-10.087	2215.912	128.078	2168.762	0
20338.924	-13.905	2220.235	124.675	2173.702	0
20339.049	-17.723	2224.558	121.289	2178.668	0
20339.174	-21.541	2228.881	117.891	2183.668	0
20339.299	-25.360	2233.204	114.480	2188.702	0
20339.424	-29.178	2237.527	111.059	2193.768	0
20339.549	-32.996	2241.850	107.627	2198.866	0
20339.674	-36.814	2246.173	104.181	2204.000	0
20339.799	-40.633	2250.496	100.711	2209.174	0
20339.924	-44.451	2254.819	97.219	2214.387	0
20340.049	-48.269	2259.142	93.714	2219.634	0
20340.174	-52.087	2263.465	90.203	2224.896	0
20340.299	-55.905	2267.788	86.685	2230.178	0
20340.424	-59.724	2272.111	83.156	2235.482	0
20340.549	-65.166	2275.813	77.991	2240.193	0
20340.674	-70.425	2279.758	72.996	2245.194	0
20340.799	-73.878	2285.050	69.798	2251.603	0
20340.924	-75.993	2291.086	67.935	2258.807	0
20341.049	-78.718	2296.721	65.492	2265.601	0
20341.174	-81.718	2302.173	62.795	2272.210	0
20341.299	-84.946	2306.977	59.881	2278.147	0
20341.424	-88.814	2311.955	56.330	2284.213	0
20341.549	-94.332	2317.649	51.117	2290.942	0
20341.674	-91.935	2323.095	53.781	2297.341	0
20341.799	-89.962	2327.763	56.109	2302.886	0
20341.924	-88.275	2331.976	58.238	2307.903	0
20342.049	-86.839	2335.793	60.199	2312.458	0
20342.174	-88.702	2340.371	58.943	2317.705	0
20342.299	-91.153	2345.185	57.130	2323.092	0
20342.424	-93.427	2349.866	55.517	2328.247	0
20342.549	-96.403	2354.239	53.223	2332.999	0
20342.674	-99.491	2359.102	50.823	2338.160	0
20342.799	-102.391	2364.474	48.628	2343.757	0
20342.924	-105.704	2370.355	46.042	2349.785	0
20343.049	-109.097	2376.340	43.393	2355.834	0
20343.174	-112.518	2382.175	40.731	2361.653	0
20343.299	-116.153	2388.746	37.864	2368.137	0
20343.424	-119.431	2395.287	35.328	2374.530	0
20343.549	-121.261	2401.346	34.227	2380.380	0
20343.674	-125.660	2407.222	30.549	2385.972	0
20343.799	-130.059	2413.098	26.812	2391.490	0
20343.924	-137.679	2418.744	19.798	2396.724	0
20344.049	-142.251	2424.608	15.741	2402.188	0
20344.174	-147.200	2430.445	11.190	2407.645	0
20344.299	-153.059	2436.217	5.613	2413.077	0
20344.424	-158.918	2441.989	-0.079	2418.581	0
20344.549	-164.777	2447.761	-5.830	2424.106	0
20344.674	-168.924	2452.509	-9.909	2428.635	0
20344.799	-173.071	2457.257	-14.017	2433.212	0
20344.924	-177.218	2462.006	-18.160	2437.847	0
20345.049	-181.365	2466.754	-22.340	2442.553	0
20345.174	-185.511	2471.502	-26.561	2447.338	0
20345.299	-189.658	2476.251	-30.827	2452.216	0
20345.424	-193.805	2480.999	-35.142	2457.200	0
20345.549	-197.375	2485.403	-38.917	2461.912	0
20345.674	-200.927	2488.687	-42.692	2465.520	0
20345.799	-204.788	2492.667	-46.776	2469.814	0
20345.924	-208.649	2496.647	-50.871	2474.105	0
20346.049	-212.510	2500.626	-54.988	2478.397	0
20346.174	-216.371	2504.606	-59.133	2482.696	0
20346.299	-220.233	2508.586	-63.314	2487.005	0
20346.424	-224.094	2512.565	-67.541	2491.331	0
20346.549	-226.946	2517.398	-70.812	2496.529	0
20346.674	-229.503	2522.405	-73.838	2501.910	0
20346.799	-231.842	2527.548	-76.658	2507.395	0
20346.924	-233.968	2532.831	-79.272	2512.980	0
20347.049	-237.047	2538.197	-82.849	2518.611	0
20347.174	-240.955	2543.434	-87.268	2524.077	0
20347.299	-244.799	2549.026	-91.640	2529.866	0
20347.424	-248.235	2554.664	-95.616	2535.676	0
20347.549	-251.347	2560.548	-99.189	2541.704	0
20347.674	-254.288	2566.076	-102.518	2547.358	0
20347.799	-257.052	2571.449	-105.605	2552.853	0
20347.924	-261.351	2576.821	-110.162	2558.344	0
20348.049	-265.619	2582.173	-114.629	2563.823	0
20348.174	-269.902	2587.612	-119.046	2569.400	0
20348.299	-274.961	2592.627	-124.115	2574.552	0
20348.424	-280.449	2597.572	-129.494	2579.635	0
20348.549	-286.058	2602.501	-134.876	2584.707	0
20348.674	-291.735	2607.416	-140.214	2589.778	0
20348.799	-297.331	2612.255	-145.382	2594.798	0
20348.924	-302.873	2617.125	-150.410	2599.878	0
20349.049	-308.185	2622.046	-155.190	2605.028	0
20349.174	-313.738	2626.710	-160.233	2609.891	0
20349.299	-319.305	2631.500	-165.320	2614.848	0
20349.424	-324.766	2636.396	-170.340	2619.872	0
20349.549	-330.062	2641.322	-175.241	2624.880	0
20349.674	-334.974	2646.319	-179.800	2629.909	0
20349.799	-339.292	2652.299	-183.813	2635.862	0
20349.924	-343.556	2658.532	-187.967	2641.985	0
20350.049	-347.902	2664.546	-192.404	2647.794	0
