Tag:	57123
Reference:	tu20_355_05
Coast Distance (km): 	30.0
Estimation Time Delay (days): 	0.0

CNES Day	Xg	Yg	Xs	Ys	Delay
20669.557	0.000	0.000	0.000	0.000	0
20669.682	4.376	5.376	4.003	5.950	0
20669.807	8.752	10.753	8.108	11.819	0
20669.932	13.128	16.129	12.341	17.598	0
20670.057	17.504	21.505	16.637	23.244	0
20670.182	21.880	26.882	20.989	28.764	0
20670.307	26.256	32.258	25.338	34.158	0
20670.432	30.632	37.634	29.681	39.454	0
20670.557	35.008	43.011	34.013	44.680	0
20670.682	39.383	48.387	38.312	49.874	0
20670.807	43.759	53.763	42.500	55.111	0
20670.932	48.135	59.140	46.554	60.411	0
20671.057	52.511	64.516	50.463	65.788	0
20671.182	59.270	69.890	56.594	71.254	0
20671.307	65.882	74.871	62.365	76.392	0
20671.432	72.448	79.732	67.876	81.462	0
20671.557	79.087	84.786	73.270	86.774	0
20671.682	85.785	89.996	78.580	92.238	0
20671.807	92.516	95.318	83.818	97.738	0
20671.932	99.247	100.641	88.965	103.128	0
20672.057	105.979	105.963	94.101	108.308	0
20672.182	112.390	109.771	98.915	111.730	0
20672.307	118.175	114.451	103.112	115.751	0
20672.432	123.741	119.427	107.170	119.783	0
20672.557	129.214	124.536	111.233	123.639	0
20672.682	134.620	129.745	115.341	127.309	0
20672.807	139.955	135.067	119.542	130.862	0
20672.932	145.177	140.584	123.789	134.362	0
20673.057	148.673	147.594	126.470	139.089	0
20673.182	152.847	154.328	129.990	143.352	0
20673.307	157.330	161.115	133.975	147.502	0
20673.432	161.335	168.095	137.615	151.683	0
20673.557	165.233	175.025	141.257	155.682	0
20673.682	168.450	181.713	144.294	159.335	0
20673.807	171.751	188.539	147.373	163.291	0
20673.932	175.034	195.365	150.347	167.505	0
20674.057	178.685	202.258	153.587	172.065	0
20674.182	180.878	208.881	155.230	176.673	0
20674.307	181.142	215.097	154.833	181.171	0
20674.432	181.268	221.230	154.296	185.842	0
20674.557	183.699	227.009	156.084	190.411	0
20674.682	186.129	232.788	157.805	195.274	0
20674.807	188.560	238.567	159.448	200.413	0
20674.932	190.990	244.346	161.019	205.830	0
20675.057	193.421	250.125	162.527	211.524	0
20675.182	196.381	255.972	164.613	217.475	0
20675.307	199.621	261.762	167.033	223.566	0
20675.432	202.869	267.604	169.525	229.907	0
20675.557	206.130	273.542	172.118	236.535	0
20675.682	209.392	279.481	174.861	243.273	0
20675.807	212.654	285.419	177.817	250.068	0
20675.932	215.915	291.357	180.979	256.901	0
20676.057	219.139	297.038	184.311	263.521	0
20676.182	222.309	302.340	187.792	269.811	0
20676.307	225.449	305.990	191.439	274.495	0
20676.432	228.589	309.640	195.230	279.208	0
20676.557	231.729	313.290	199.167	283.954	0
20676.682	234.869	316.953	203.190	288.803	0
20676.807	238.011	320.737	207.229	293.923	0
20676.932	241.155	324.595	211.280	299.273	0
20677.057	244.300	328.498	215.331	304.797	0
20677.182	247.439	332.135	219.368	310.152	0
20677.307	250.590	335.723	223.407	315.550	0
20677.432	253.741	339.311	227.441	321.034	0
20677.557	256.892	342.899	231.472	326.602	0
20677.682	260.077	346.335	235.530	332.117	0
20677.807	262.895	349.892	239.195	337.869	0
20677.932	265.771	353.429	242.856	343.712	0
20678.057	268.673	356.958	246.481	349.653	0
20678.182	271.585	360.483	250.048	355.692	0
20678.307	274.525	364.000	253.578	361.816	0
20678.432	277.803	367.405	257.380	367.919	0
20678.557	281.527	370.664	261.563	373.933	0
20678.682	281.527	375.147	261.952	381.166	0
20678.807	283.666	379.506	264.410	388.380	0
20678.932	285.534	383.880	266.512	395.659	0
20679.057	287.189	388.267	268.316	403.036	0
20679.182	288.827	392.655	270.015	410.502	0
20679.307	290.460	397.043	271.620	418.050	0
20679.432	292.075	401.432	273.117	425.684	0
20679.557	293.663	405.823	274.496	433.394	0
20679.682	295.690	410.483	276.225	441.406	0
20679.807	297.731	415.139	277.873	449.377	0
20679.932	300.691	421.163	280.375	458.679	0
20680.057	303.244	426.892	282.479	467.658	0
20680.182	305.666	432.527	284.467	476.519	0
20680.307	307.760	438.065	286.145	485.260	0
20680.432	309.562	443.543	287.561	493.929	0
20680.557	311.325	449.014	288.972	502.588	0
20680.682	313.183	454.524	290.585	511.252	0
20680.807	314.930	459.991	292.341	519.774	0
20680.932	314.177	464.621	291.852	527.368	0
20681.057	313.540	469.365	291.720	535.050	0
20681.182	313.037	474.241	291.958	542.832	0
20681.307	313.981	476.886	293.883	548.349	0
20681.432	314.925	479.531	295.967	553.794	0
20681.557	315.868	482.175	298.202	559.166	0
20681.682	316.812	484.820	300.568	564.454	0
20681.807	317.755	487.465	303.042	569.620	0
20681.932	318.699	490.110	305.623	574.669	0
20682.057	319.643	492.755	308.310	579.601	0
20682.182	320.586	495.399	311.104	584.421	0
20682.307	321.530	498.044	313.999	589.130	0
20682.432	322.473	500.689	317.000	593.732	0
20682.557	323.417	503.334	320.106	598.229	0
20682.682	324.361	505.979	323.304	602.650	0
20682.807	325.304	508.624	326.573	607.028	0
20682.932	326.248	511.268	329.918	611.363	0
20683.057	327.191	513.913	333.338	615.654	0
20683.182	328.135	516.558	336.833	619.903	0
20683.307	329.078	519.203	340.386	624.110	0
20683.432	330.022	521.848	343.938	628.282	0
20683.557	330.966	524.492	347.490	632.416	0
20683.682	331.909	527.137	351.041	636.533	0
20683.807	332.853	529.782	354.586	640.655	0
20683.932	333.796	532.427	358.128	644.784	0
20684.057	334.740	535.072	361.666	648.920	0
20684.182	335.684	537.716	365.201	653.065	0
20684.307	339.643	538.424	371.747	655.283	0
20684.432	342.227	539.358	376.913	657.741	0
20684.557	344.431	540.354	381.691	660.277	0
20684.682	346.448	541.381	386.248	662.862	0
20684.807	348.315	542.433	390.588	665.492	0
20684.932	349.998	543.514	394.681	668.174	0
20685.057	351.330	544.090	398.359	670.375	0
20685.182	352.788	543.816	402.094	671.744	0
20685.307	354.000	544.321	405.495	673.889	0
20685.432	355.065	544.862	408.672	676.076	0
20685.557	356.061	545.282	411.705	678.146	0
20685.682	357.000	545.738	414.679	680.145	0
20685.807	357.999	546.134	417.801	681.844	0
20685.932	359.372	546.254	421.384	683.028	0
20686.057	360.717	546.439	425.022	684.035	0
20686.182	359.926	549.151	426.609	687.327	0
20686.307	358.527	552.696	427.699	691.247	0
20686.432	356.504	557.020	428.194	695.733	0
20686.557	355.704	562.210	429.862	700.862	0
20686.682	355.071	567.509	431.589	706.006	0
20686.807	354.240	572.662	432.959	711.073	0
20686.932	353.292	577.719	434.059	716.101	0
20687.057	352.036	582.540	434.695	720.942	0
20687.182	350.727	587.555	435.127	726.011	0
20687.307	351.213	593.776	437.117	732.294	0
20687.432	353.897	601.403	440.949	739.981	0
20687.557	356.555	608.982	444.344	747.625	0
20687.682	359.207	616.551	447.322	755.275	0
20687.807	361.884	623.940	449.901	762.770	0
20687.932	364.572	631.300	452.154	770.270	0
20688.057	367.276	638.746	454.131	777.881	0
20688.182	369.883	645.832	455.724	785.146	0
20688.307	372.498	652.661	457.060	792.163	0
20688.432	375.209	659.157	458.247	798.851	0
20688.557	378.157	664.830	459.642	804.662	0
20688.682	381.100	670.494	461.067	810.369	0
20688.807	382.501	675.119	461.005	814.889	0
20688.932	382.967	679.196	460.029	818.726	0
20689.057	384.570	684.015	460.191	823.181	0
20689.182	386.355	688.933	460.569	827.591	0
20689.307	387.505	694.025	460.369	832.024	0
20689.432	388.954	698.980	460.644	836.125	0
20689.557	390.114	703.774	460.804	839.907	0
20689.682	392.185	708.344	462.057	843.335	0
20689.807	393.790	712.973	463.066	846.751	0
20689.932	393.349	718.220	462.236	850.695	0
20690.057	393.260	723.651	461.929	854.649	0
20690.182	393.230	729.114	461.862	858.482	0
20690.307	393.229	734.593	461.973	862.268	0
20690.432	393.254	740.085	462.256	866.010	0
20690.557	393.311	745.594	462.714	869.717	0
20690.682	393.429	751.135	463.360	873.413	0
20690.807	395.709	755.819	466.272	876.224	0
20690.932	397.989	760.504	469.286	879.104	0
20691.057	400.269	765.189	472.377	882.100	0
20691.182	402.549	769.873	475.523	885.249	0
20691.307	405.133	774.324	479.024	888.304	0
20691.432	407.490	778.782	482.338	891.511	0
20691.557	409.865	783.162	485.703	894.773	0
20691.682	412.601	787.569	489.442	898.200	0
20691.807	415.336	791.984	493.172	901.795	0
20691.932	418.072	796.398	496.884	905.552	0
20692.057	420.807	800.812	500.634	909.501	0
20692.182	423.543	805.226	504.423	913.649	0
20692.307	422.793	808.619	504.755	916.981	0
20692.432	421.861	811.675	504.945	920.044	0
20692.557	420.870	813.917	505.113	922.350	0
20692.682	420.062	815.599	505.507	924.107	0
20692.807	419.340	816.859	506.037	925.410	0
20692.932	418.658	817.910	506.643	926.477	0
20693.057	417.966	819.015	507.273	927.568	0
20693.182	417.242	819.710	507.906	928.221	0
20693.307	416.550	820.208	508.603	928.640	0
20693.432	415.995	820.324	509.458	928.640	0
20693.557	415.751	820.072	510.637	928.238	0
20693.682	413.797	819.098	510.147	927.042	0
20693.807	411.881	818.129	509.786	925.626	0
20693.932	410.256	817.153	509.808	923.984	0
20694.057	408.514	816.225	509.804	922.173	0
20694.182	406.805	815.308	509.919	920.155	0
20694.307	405.191	814.422	510.221	917.940	0
20694.432	403.092	813.345	510.126	915.316	0
20694.557	400.986	812.293	510.113	912.464	0
20694.682	398.878	811.321	510.179	909.474	0
20694.807	399.009	813.136	512.553	909.102	0
20694.932	399.141	814.951	515.050	908.686	0
20695.057	399.232	816.750	517.627	908.214	0
20695.182	399.294	818.486	520.299	907.626	0
20695.307	399.995	820.367	523.734	907.133	0
20695.432	400.830	822.224	527.425	906.593	0
20695.557	401.089	823.762	530.659	905.721	0
20695.682	400.966	825.562	533.538	905.157	0
20695.807	399.870	827.451	535.371	904.824	0
20695.932	401.949	829.648	540.319	904.890	0
20696.057	405.131	832.245	546.246	905.639	0
20696.182	408.385	834.879	552.104	906.758	0
20696.307	411.690	837.538	557.866	908.245	0
20696.432	415.047	840.224	563.530	910.089	0
20696.557	418.667	840.005	569.298	909.356	0
20696.682	422.214	840.378	574.836	909.459	0
20696.807	425.710	841.160	580.188	910.163	0
20696.932	429.361	841.442	585.566	910.544	0
20697.057	433.030	841.577	590.832	910.862	0
20697.182	436.687	841.629	595.961	911.176	0
20697.307	440.279	841.235	600.905	911.116	0
20697.432	443.811	840.422	605.673	910.697	0
20697.557	443.013	836.984	606.003	907.707	0
20697.682	444.141	834.714	608.189	905.878	0
20697.807	443.369	831.762	608.366	903.445	0
20697.932	442.647	828.795	608.496	901.049	0
20698.057	441.966	825.815	608.568	898.700	0
20698.182	441.301	822.829	608.538	896.429	0
20698.307	440.685	819.828	608.429	894.238	0
20698.432	440.718	816.617	608.841	891.936	0
20698.557	440.594	813.532	608.968	889.867	0
20698.682	436.630	811.290	605.161	888.683	0
20698.807	432.788	808.899	601.418	887.283	0
20698.932	428.919	806.457	597.589	885.767	0
20699.057	425.176	803.847	593.830	884.020	0
20699.182	421.567	801.058	590.149	882.030	0
20699.307	417.914	798.335	586.372	879.974	0
20699.432	414.215	795.681	582.496	877.852	0
20699.557	410.465	793.111	578.516	875.679	0
20699.682	406.819	790.413	574.630	873.232	0
20699.807	403.731	786.796	571.366	869.719	0
20699.932	399.143	784.270	566.680	867.161	0
20700.057	394.663	781.646	562.165	864.326	0
20700.182	390.170	779.034	557.701	861.322	0
20700.307	385.412	775.786	553.040	857.502	0
20700.432	380.730	772.411	548.563	853.389	0
20700.557	376.216	769.140	544.397	849.237	0
20700.682	371.490	766.001	540.109	845.025	0
20700.807	366.803	762.949	535.892	840.642	0
20700.932	362.114	759.972	531.703	836.072	0
20701.057	357.324	757.101	527.447	831.334	0
20701.182	353.950	752.978	524.626	825.081	0
20701.307	350.815	749.227	521.985	819.054	0
20701.432	347.713	745.524	519.315	812.949	0
20701.557	344.643	741.864	516.560	806.900	0
20701.682	341.601	738.241	513.743	801.028	0
20701.807	338.567	734.632	510.873	795.444	0
20701.932	336.222	731.845	508.625	790.946	0
20702.057	333.936	729.246	506.389	786.856	0
20702.182	336.168	728.794	508.630	785.118	0
20702.307	338.401	728.342	510.939	783.455	0
20702.432	340.633	727.890	513.317	781.868	0
20702.557	342.865	727.438	515.764	780.359	0
20702.682	345.097	726.986	518.255	778.902	0
20702.807	347.330	726.534	520.765	777.460	0
20702.932	349.562	726.082	523.296	776.036	0
20703.057	351.794	725.631	525.850	774.630	0
20703.182	354.026	725.179	528.421	773.267	0
20703.307	356.259	724.727	531.001	771.989	0
20703.432	358.491	724.275	533.592	770.793	0
20703.557	360.723	723.823	536.195	769.680	0
20703.682	362.955	723.371	538.809	768.641	0
20703.807	365.188	722.919	541.427	767.673	0
20703.932	367.420	722.468	544.052	766.774	0
20704.057	369.652	722.016	546.685	765.945	0
20704.182	371.872	721.600	549.313	765.221	0
20704.307	374.092	721.184	551.951	764.566	0
20704.432	376.312	720.769	554.601	763.979	0
20704.557	378.532	720.353	557.260	763.460	0
20704.682	380.752	719.937	559.953	763.033	0
20704.807	382.972	719.521	562.706	762.727	0
20704.932	385.192	719.106	565.521	762.538	0
20705.057	387.412	718.690	568.398	762.468	0
20705.182	389.632	718.274	571.339	762.516	0
20705.307	391.853	717.859	574.331	762.698	0
20705.432	394.073	717.443	577.367	763.015	0
20705.557	396.293	717.027	580.446	763.468	0
20705.682	398.513	716.612	583.515	764.014	0
20705.807	400.733	716.196	586.516	764.604	0
20705.932	402.953	715.780	589.451	765.236	0
20706.057	405.173	715.365	592.320	765.912	0
20706.182	407.393	714.949	595.126	766.632	0
20706.307	409.613	714.533	597.871	767.395	0
20706.432	411.833	714.117	600.557	768.201	0
20706.557	414.053	713.702	603.185	769.051	0
20706.682	416.273	713.286	605.794	769.923	0
20706.807	418.493	712.870	608.431	770.795	0
20706.932	420.713	712.455	611.097	771.665	0
20707.057	422.933	712.039	613.790	772.533	0
20707.182	425.153	711.623	616.513	773.396	0
20707.307	427.373	711.208	619.264	774.250	0
20707.432	429.593	710.792	622.030	775.043	0
20707.557	431.813	710.376	624.810	775.770	0
20707.682	434.033	709.961	627.600	776.453	0
20707.807	436.253	709.545	630.395	777.114	0
20707.932	438.474	709.129	633.196	777.754	0
20708.057	440.694	708.713	636.003	778.372	0
20708.182	442.914	708.298	638.815	778.965	0
20708.307	445.134	707.882	641.633	779.533	0
20708.432	447.354	707.466	644.457	780.075	0
20708.557	449.574	707.051	647.286	780.591	0
20708.682	451.794	706.635	650.116	781.094	0
20708.807	454.478	704.842	653.405	780.228	0
20708.932	459.427	703.016	658.954	779.333	0
20709.057	464.848	701.391	664.977	778.607	0
20709.182	469.810	699.846	670.535	777.907	0
20709.307	473.958	698.370	675.257	777.215	0
20709.432	478.132	696.890	679.989	776.473	0
20709.557	482.301	695.406	684.700	775.678	0
20709.682	486.572	693.887	689.499	774.793	0
20709.807	490.220	692.592	693.666	774.078	0
20709.932	493.120	691.395	697.074	773.419	0
20710.057	494.783	690.216	699.240	772.753	0
20710.182	498.872	690.144	703.830	773.193	0
20710.307	502.962	690.071	708.411	773.587	0
20710.432	507.051	689.998	713.004	773.989	0
20710.557	511.141	689.926	717.613	774.409	0
20710.682	515.231	689.853	722.237	774.824	0
20710.807	519.320	689.780	726.875	775.204	0
20710.932	523.410	689.708	731.529	775.548	0
20711.057	527.500	689.635	736.198	775.856	0
20711.182	531.589	689.562	740.884	776.129	0
20711.307	535.679	689.489	745.589	776.365	0
20711.432	539.769	689.417	750.311	776.565	0
20711.557	543.858	689.344	755.068	776.782	0
20711.682	547.948	689.271	759.861	777.036	0
20711.807	552.037	689.199	764.690	777.329	0
20711.932	556.127	689.126	769.557	777.660	0
20712.057	560.217	689.053	774.461	778.028	0
20712.182	564.306	688.981	779.403	778.429	0
20712.307	568.396	688.908	784.384	778.863	0
20712.432	572.486	688.835	789.403	779.327	0
20712.557	576.575	688.763	794.464	779.820	0
20712.682	580.665	688.690	799.573	780.348	0
20712.807	584.146	690.800	804.141	783.096	0
20712.932	587.252	692.614	808.378	785.551	0
20713.057	590.255	694.326	812.560	787.911	0
20713.182	593.213	695.999	816.743	790.240	0
20713.307	596.136	697.645	820.939	792.555	0
20713.432	599.020	699.266	825.145	794.861	0
20713.557	601.837	700.853	829.333	797.151	0
20713.682	604.386	702.319	833.276	799.341	0
20713.807	606.700	703.807	836.978	801.571	0
20713.932	609.242	706.577	840.908	805.104	0
20714.057	612.017	708.933	845.073	808.246	0
20714.182	614.846	711.228	849.292	811.349	0
20714.307	617.545	713.385	853.367	814.322	0
20714.432	620.174	715.432	857.361	817.198	0
20714.557	622.572	717.069	861.117	819.680	0
20714.682	625.197	719.583	865.117	823.051	0
20714.807	626.677	721.561	868.015	825.892	0
20714.932	631.930	725.305	874.727	830.494	0
20715.057	633.594	729.158	877.864	835.249	0
20715.182	635.258	733.012	880.973	839.989	0
20715.307	636.921	736.866	884.052	844.719	0
20715.432	637.992	740.738	886.515	849.462	0
20715.557	639.585	744.594	889.469	854.174	0
20715.682	641.321	748.446	892.531	858.905	0
20715.807	643.409	752.287	895.899	863.683	0
20715.932	644.723	756.151	898.451	868.552	0
20716.057	646.089	759.622	901.008	873.078	0
20716.182	647.455	763.092	903.512	877.644	0
20716.307	648.822	766.562	905.952	882.238	0
20716.432	650.502	767.651	908.634	884.456	0
20716.557	652.037	768.885	911.150	886.838	0
20716.682	653.541	770.151	913.584	889.296	0
20716.807	655.063	771.399	915.958	891.809	0
20716.932	656.590	772.642	918.257	894.394	0
20717.057	658.124	773.877	920.489	897.047	0
20717.182	659.752	775.039	922.743	899.704	0
20717.307	661.886	775.981	925.436	902.221	0
20717.432	662.226	777.801	926.274	905.701	0
20717.557	662.578	779.579	927.038	909.210	0
20717.682	662.936	781.336	927.749	912.699	0
20717.807	662.663	783.197	927.804	916.213	0
20717.932	661.851	785.161	927.290	919.749	0
20718.057	661.539	787.108	927.240	923.181	0
20718.182	661.473	789.030	927.404	926.505	0
20718.307	661.463	790.913	927.593	929.709	0
20718.432	661.299	792.719	927.600	932.757	0
20718.557	660.988	794.613	927.435	935.814	0
20718.682	660.506	796.680	927.076	939.024	0
20718.807	659.822	798.093	926.479	941.634	0
20718.932	658.879	798.968	925.593	943.769	0
20719.057	657.575	799.877	924.319	946.004	0
20719.182	656.417	800.703	923.159	948.220	0
20719.307	655.168	801.039	921.879	950.014	0
20719.432	653.880	801.369	920.535	951.875	0
20719.557	652.552	801.691	919.128	953.805	0
20719.682	651.175	802.005	917.642	955.765	0
20719.807	649.439	802.245	915.763	957.645	0
20719.932	649.116	802.430	915.259	959.462	0
20720.057	648.410	802.609	914.349	961.276	0
20720.182	648.232	802.818	913.939	963.118	0
20720.307	646.854	802.688	912.305	964.622	0
20720.432	645.326	802.524	910.490	966.052	0
20720.557	643.995	802.421	908.839	967.480	0
20720.682	642.777	802.366	907.300	968.881	0
20720.807	641.840	802.370	906.079	970.241	0
20720.932	641.778	802.501	905.774	971.645	0
20721.057	640.705	802.643	904.504	973.010	0
20721.182	639.444	802.759	903.086	974.258	0
20721.307	638.140	802.733	901.660	975.258	0
20721.432	636.726	802.459	900.163	975.906	0
20721.557	635.318	802.208	898.712	976.473	0
20721.682	633.885	801.962	897.282	976.942	0
20721.807	632.326	801.808	895.771	977.402	0
20721.932	631.680	801.664	895.218	977.764	0
20722.057	631.074	801.495	894.757	978.038	0
20722.182	630.367	801.281	894.249	978.206	0
20722.307	629.028	800.732	893.160	977.974	0
20722.432	627.580	800.176	892.011	977.645	0
20722.557	626.419	799.850	891.196	977.452	0
20722.682	622.159	799.681	887.299	977.341	0
20722.807	617.900	799.512	883.349	977.034	0
20722.932	612.734	798.962	878.447	976.156	0
20723.057	609.079	799.753	875.009	976.387	0
20723.182	605.713	800.605	871.824	976.532	0
20723.307	602.705	801.210	868.974	976.322	0
20723.432	598.042	801.208	864.455	975.420	0
20723.557	593.188	801.020	859.735	974.214	0
20723.682	587.979	801.206	854.637	973.290	0
20723.807	582.770	801.392	849.488	972.285	0
20723.932	580.101	800.948	846.823	970.570	0
20724.057	577.428	800.252	844.109	968.588	0
20724.182	574.753	799.379	841.346	966.418	0
20724.307	570.929	798.267	837.384	963.994	0
20724.432	566.822	797.098	833.087	961.536	0
20724.557	562.641	795.883	828.662	959.081	0
20724.682	558.333	794.594	824.054	956.577	0
20724.807	553.646	793.044	819.007	953.814	0
20724.932	550.955	790.998	815.892	950.552	0
20725.057	547.563	789.133	812.054	947.490	0
20725.182	543.943	787.461	807.966	944.639	0
20725.307	540.260	785.811	803.785	941.825	0
20725.432	536.633	784.134	799.626	938.998	0
20725.557	533.543	782.274	795.970	936.003	0
20725.682	530.336	780.250	792.192	932.949	0
20725.807	525.685	778.477	786.981	930.277	0
20725.932	521.866	776.540	782.595	927.591	0
20726.057	518.249	774.563	778.401	924.994	0
