Tag:	66266
Reference:	tu26_E_05
Coast Distance (km): 	30.0
Estimation Time Delay (days): 	0.0

CNES Day	Xg	Yg	Xs	Ys	Delay
20620.318	0.000	0.000	0.000	0.000	0
20620.443	-0.245	3.977	999.000	999.000	0
20620.568	-0.489	7.954	999.000	999.000	0
20620.693	-0.734	11.931	999.000	999.000	0
20620.818	-0.978	15.908	999.000	999.000	0
20620.943	-1.223	19.886	999.000	999.000	0
20621.068	-1.467	23.863	999.000	999.000	0
20621.193	-5.081	24.399	999.000	999.000	0
20621.318	-8.695	24.936	999.000	999.000	0
20621.443	-12.309	25.473	999.000	999.000	0
20621.568	-15.923	26.010	999.000	999.000	0
20621.693	-19.537	26.546	999.000	999.000	0
20621.818	-23.150	27.083	999.000	999.000	0
20621.943	-26.764	27.620	999.000	999.000	0
20622.068	-30.378	28.157	999.000	999.000	0
20622.193	-33.992	28.693	999.000	999.000	0
20622.318	-37.606	29.230	999.000	999.000	0
20622.443	-41.220	29.767	999.000	999.000	0
20622.568	-44.834	30.304	999.000	999.000	0
20622.693	-48.448	30.840	999.000	999.000	0
20622.818	-52.062	31.377	999.000	999.000	0
20622.943	-55.676	31.914	999.000	999.000	0
20623.068	-59.289	32.451	999.000	999.000	0
20623.193	-59.085	34.293	999.000	999.000	0
20623.318	-58.880	36.134	999.000	999.000	0
20623.443	-58.675	37.976	999.000	999.000	0
20623.568	-58.471	39.818	999.000	999.000	0
20623.693	-58.266	41.660	999.000	999.000	0
20623.818	-58.061	43.502	999.000	999.000	0
20623.943	-58.275	45.908	999.000	999.000	0
20624.068	-58.488	48.314	999.000	999.000	0
20624.193	-58.701	50.721	999.000	999.000	0
20624.318	-59.687	54.172	999.000	999.000	0
20624.443	-60.991	57.904	999.000	999.000	0
20624.568	-62.266	61.610	999.000	999.000	0
20624.693	-63.511	65.290	999.000	999.000	0
20624.818	-64.740	68.955	999.000	999.000	0
20624.943	-65.903	72.565	999.000	999.000	0
20625.068	-67.187	76.223	999.000	999.000	0
20625.193	-68.470	79.881	999.000	999.000	0
20625.318	-68.286	83.331	999.000	999.000	0
20625.443	-67.974	86.645	999.000	999.000	0
20625.568	-67.640	89.907	999.000	999.000	0
20625.693	-67.291	93.151	999.000	999.000	0
20625.818	-66.926	96.378	-130.134	1.421	0
20625.943	-66.539	99.585	-132.973	1.491	0
20626.068	-66.104	102.751	-135.670	1.583	0
20626.193	-65.239	105.504	-137.849	1.322	0
20626.318	-63.614	107.535	-139.192	0.386	0
20626.443	-62.295	109.797	-140.808	-0.292	0
20626.568	-60.978	112.001	-142.398	-0.970	0
20626.693	-56.989	114.244	-141.245	-1.580	0
20626.818	-53.669	116.545	-140.670	-2.150	0
20626.943	-51.496	118.974	-141.182	-2.554	0
20627.068	-47.569	120.981	-139.896	-3.299	0
20627.193	-43.632	122.989	-138.624	-3.941	0
20627.318	-41.441	125.045	-139.158	-4.390	0
20627.443	-39.597	127.578	-140.083	-4.212	0
20627.568	-39.917	130.403	-143.211	-3.571	0
20627.693	-40.360	133.288	-146.424	-2.803	0
20627.818	-40.621	136.285	-149.421	-1.843	0
20627.943	-40.843	139.272	-152.350	-0.805	0
20628.068	-40.900	142.246	-155.080	0.310	0
20628.193	-40.794	145.197	-157.618	1.496	0
20628.318	-42.732	148.560	-162.170	3.185	0
20628.443	-43.147	152.130	-165.092	5.149	0
20628.568	-43.644	155.937	-168.033	7.456	0
20628.693	-42.056	160.154	-168.825	10.295	0
20628.818	-39.672	164.558	-168.823	13.501	0
20628.943	-37.366	168.989	-168.907	16.889	0
20629.068	-35.129	173.448	-169.015	20.350	0
20629.193	-35.751	179.712	-171.906	25.632	0
20629.318	-36.069	185.863	-174.328	30.834	0
20629.443	-36.080	191.933	-176.281	35.987	0
20629.568	-37.719	198.637	-179.711	41.810	0
20629.693	-40.454	206.050	-184.029	48.349	0
20629.818	-44.686	214.467	-189.631	55.824	0
20629.943	-48.170	220.271	-194.225	60.602	0
20630.068	-50.300	220.741	-197.240	59.982	0
20630.193	-53.330	224.448	-201.062	62.554	0
20630.318	-56.483	228.952	-204.812	65.875	0
20630.443	-59.381	233.390	-208.075	69.086	0
20630.568	-61.908	235.724	-210.719	70.155	0
20630.693	-64.109	236.215	-212.868	69.343	0
20630.818	-66.310	236.706	-214.926	68.492	0
20630.943	-69.637	240.635	-218.012	71.075	0
20631.068	-72.964	244.564	-220.805	73.967	0
20631.193	-76.291	248.493	-223.299	77.210	0
20631.318	-79.619	252.423	-225.346	80.993	0
20631.443	-82.946	256.352	-226.888	85.355	0
20631.568	-86.273	260.281	-227.934	90.245	0
20631.693	-89.600	264.210	-228.492	95.639	0
20631.818	-92.928	268.140	-228.573	101.511	0
20631.943	-96.255	272.069	-228.177	107.830	0
20632.068	-99.582	275.998	-227.314	114.548	0
20632.193	-102.910	279.927	-226.278	121.387	0
20632.318	-106.237	283.857	-225.180	128.277	0
20632.443	-109.564	287.786	-224.062	135.197	0
20632.568	-112.891	291.715	-222.978	142.121	0
20632.693	-116.219	295.644	-222.144	148.867	0
20632.818	-119.546	299.574	-221.662	155.320	0
20632.943	-122.873	303.503	-221.516	161.481	0
20633.068	-126.200	307.432	-221.685	167.346	0
20633.193	-129.528	311.361	-222.158	172.913	0
20633.318	-132.855	315.291	-222.803	178.232	0
20633.443	-136.182	319.220	-223.539	183.338	0
20633.568	-139.509	323.149	-224.356	188.225	0
20633.693	-142.837	327.078	999.000	999.000	0
20633.818	-146.164	331.008	999.000	999.000	0
20633.943	-149.491	334.937	999.000	999.000	0
20634.068	-152.818	338.866	999.000	999.000	0
20634.193	-156.146	342.795	999.000	999.000	0
20634.318	-159.473	346.725	999.000	999.000	0
20634.443	-162.800	350.654	999.000	999.000	0
20634.568	-166.128	354.583	999.000	999.000	0
20634.693	-169.455	358.512	999.000	999.000	0
20634.818	-172.782	362.442	999.000	999.000	0
20634.943	-173.459	359.909	999.000	999.000	0
20635.068	-170.188	347.749	999.000	999.000	0
20635.193	-170.160	359.610	999.000	999.000	0
20635.318	-170.131	371.471	999.000	999.000	0
20635.443	-170.103	383.332	999.000	999.000	0
20635.568	-169.773	392.960	-216.132	350.971	0
20635.693	-169.304	401.560	-215.697	360.243	0
20635.818	-168.725	409.340	-215.329	368.794	0
20635.943	-168.054	416.442	-215.027	376.753	0
20636.068	-167.384	430.420	-214.865	391.664	0
20636.193	-167.541	437.533	-215.270	399.454	0
20636.318	-167.698	444.647	-215.520	407.078	0
20636.443	-167.854	451.761	-215.605	414.535	0
20636.568	-168.319	455.586	-215.829	418.541	0
20636.693	-168.716	459.706	999.000	999.000	0
20636.818	-169.068	463.987	999.000	999.000	0
20636.943	-169.104	468.834	999.000	999.000	0
20637.068	-168.922	474.163	999.000	999.000	0
20637.193	-168.666	479.818	999.000	999.000	0
20637.318	-168.458	485.367	999.000	999.000	0
20637.443	-167.615	492.541	999.000	999.000	0
20637.568	-166.631	500.120	999.000	999.000	0
20637.693	-164.617	507.334	999.000	999.000	0
20637.818	-161.781	514.240	999.000	999.000	0
20637.943	-159.069	521.196	999.000	999.000	0
20638.068	-156.089	528.123	999.000	999.000	0
20638.193	-152.848	534.946	999.000	999.000	0
20638.318	-149.042	541.474	999.000	999.000	0
20638.443	-144.659	547.645	999.000	999.000	0
20638.568	-140.022	553.762	-125.769	508.598	0
20638.693	-134.125	559.765	-118.872	514.077	0
20638.818	-126.465	565.607	-110.234	519.349	0
20638.943	-120.094	571.567	999.000	999.000	0
20639.068	-113.818	577.536	999.000	999.000	0
20639.193	-107.251	583.478	999.000	999.000	0
20639.318	-100.780	589.502	999.000	999.000	0
20639.443	-96.972	597.867	999.000	999.000	0
20639.568	-90.600	604.010	999.000	999.000	0
20639.693	-81.847	607.893	999.000	999.000	0
20639.818	-79.502	617.722	-93.402	595.022	0
20639.943	-77.002	627.457	-91.195	604.428	0
20640.068	-74.411	637.136	-88.943	613.790	0
20640.193	-71.684	646.612	-86.588	622.913	0
20640.318	-68.843	655.854	-84.094	631.720	0
20640.443	-65.969	665.039	-81.528	640.369	0
20640.568	-63.061	674.172	-78.883	648.855	0
20640.693	-60.068	683.183	-76.119	657.047	0
20640.818	-56.784	691.778	-73.060	664.625	0
20640.943	-53.572	700.407	-70.063	672.042	0
20641.068	-50.463	709.082	-67.158	679.331	0
20641.193	-47.893	717.921	-64.760	686.621	0
20641.318	-47.523	727.132	-64.499	694.138	0
20641.443	-45.835	736.129	-62.864	701.373	0
20641.568	-44.449	745.148	-61.478	708.536	0
20641.693	-43.252	754.160	-60.154	715.597	0
20641.818	-42.023	763.171	-58.583	722.548	0
20641.943	-40.750	772.179	-56.757	729.392	0
20642.068	-39.190	781.172	-54.439	736.126	0
20642.193	-35.809	790.065	-50.023	742.649	0
20642.318	-37.669	799.244	-50.461	749.279	0
20642.443	-37.226	806.313	-48.260	753.786	0
20642.568	-35.187	811.916	-44.183	756.772	0
20642.693	-33.874	818.187	-40.619	760.344	0
20642.818	-32.603	824.495	-36.889	763.863	0
20642.943	-31.338	830.809	-32.956	767.300	0
20643.068	-30.087	837.135	-28.834	770.671	0
20643.193	-28.945	843.563	-24.616	774.065	0
20643.318	-31.906	850.807	-24.294	778.210	0
20643.443	-27.419	855.937	-16.343	780.265	0
20643.568	-37.628	865.240	-23.035	786.500	0
20643.693	-47.778	874.500	-29.476	792.898	0
20643.818	-57.138	883.195	-34.915	799.052	0
20643.943	-66.349	891.781	-39.931	805.357	0
20644.068	-75.290	900.167	-44.418	811.776	0
20644.193	-84.179	908.668	-48.585	818.601	0
20644.318	-93.591	917.435	-53.055	825.987	0
20644.443	-104.395	927.168	-58.654	834.594	0
20644.568	-111.079	934.232	-60.074	840.792	0
20644.693	-117.865	941.182	-61.591	847.001	0
20644.818	-124.810	948.171	-63.330	853.255	0
20644.943	-131.949	955.297	-65.326	859.601	0
20645.068	-139.749	961.953	-68.079	865.382	0
20645.193	-147.652	968.366	-71.267	870.802	0
20645.318	-155.561	974.608	-74.792	875.913	0
20645.443	-163.192	980.493	-78.347	880.643	0
20645.568	-170.645	986.401	-81.990	885.380	0
20645.693	-177.819	992.529	-85.589	890.316	0
20645.818	-185.121	998.397	-89.548	894.983	0
20645.943	-192.402	1004.209	-93.708	899.614	0
20646.068	-199.336	1009.784	-97.722	904.244	0
20646.193	-204.956	1015.607	-100.601	909.353	0
20646.318	-207.928	1022.353	-101.015	915.562	0
20646.443	-210.490	1028.826	-101.237	921.589	0
20646.568	-213.331	1034.972	-101.916	927.361	0
20646.693	-216.209	1041.129	-102.801	933.221	0
20646.818	-218.844	1047.428	-103.629	939.286	0
20646.943	-222.262	1052.977	-105.432	944.637	0
20647.068	-225.462	1058.761	-107.193	950.265	0
20647.193	-228.648	1064.580	-109.160	955.914	0
20647.318	-232.034	1070.190	-111.436	961.332	0
20647.443	-235.882	1074.853	-114.234	965.782	0
20647.568	-241.531	1078.241	-118.890	968.952	0
20647.693	-247.806	1082.300	-124.240	972.823	0
20647.818	-253.825	1087.035	-129.404	977.408	0
20647.943	-260.050	1091.301	-134.838	981.561	0
20648.068	-266.325	1095.461	-140.383	985.650	0
20648.193	-272.605	1099.577	-145.946	989.713	0
20648.318	-278.446	1104.202	-151.018	994.345	0
20648.443	-284.434	1108.886	-156.185	999.112	0
20648.568	-290.659	1112.972	-161.541	1003.377	0
20648.693	-296.878	1117.192	-166.862	1007.877	0
20648.818	-303.073	1121.973	-172.131	1013.038	0
20648.943	-308.649	1126.238	-176.691	1017.743	0
20649.068	-313.449	1130.973	-180.412	1022.972	0
20649.193	-318.203	1135.737	999.000	999.000	0
20649.318	-322.921	1140.540	999.000	999.000	0
20649.443	-328.012	1145.352	999.000	999.000	0
20649.568	-333.278	1149.902	999.000	999.000	0
20649.693	-338.579	1154.299	999.000	999.000	0
20649.818	-342.538	1160.258	999.000	999.000	0
20649.943	-346.812	1166.076	999.000	999.000	0
20650.068	-351.380	1171.765	999.000	999.000	0
20650.193	-356.322	1177.288	999.000	999.000	0
20650.318	-360.013	1187.635	999.000	999.000	0
20650.443	-363.704	1197.982	999.000	999.000	0
20650.568	-367.395	1208.329	999.000	999.000	0
20650.693	-371.087	1218.676	999.000	999.000	0
20650.818	-374.778	1229.023	999.000	999.000	0
20650.943	-378.469	1239.370	999.000	999.000	0
20651.068	-382.160	1249.717	999.000	999.000	0
20651.193	-385.851	1260.064	999.000	999.000	0
20651.318	-389.543	1270.410	999.000	999.000	0
20651.443	-393.234	1280.757	999.000	999.000	0
20651.568	-396.925	1291.104	999.000	999.000	0
20651.693	-400.616	1301.451	999.000	999.000	0
20651.818	-404.308	1311.798	999.000	999.000	0
20651.943	-407.999	1322.145	999.000	999.000	0
20652.068	-411.690	1332.492	999.000	999.000	0
20652.193	-415.381	1342.839	999.000	999.000	0
20652.318	-419.073	1353.186	999.000	999.000	0
20652.443	-422.764	1363.533	999.000	999.000	0
20652.568	-426.455	1373.880	999.000	999.000	0
20652.693	-430.146	1384.227	-318.755	1177.728	0
20652.818	-433.837	1394.574	-323.216	1182.863	0
20652.943	-437.529	1404.921	-327.329	1187.809	0
20653.068	-441.220	1415.268	-331.058	1192.569	0
20653.193	-444.911	1425.615	-334.395	1197.274	0
20653.318	-448.602	1435.962	-337.347	1202.048	0
20653.443	-452.294	1446.308	-339.864	1206.903	0
20653.568	-462.793	1458.698	-348.776	1213.874	0
20653.693	-473.380	1471.364	-357.178	1220.647	0
20653.818	-484.016	1484.189	-365.018	1227.098	0
20653.943	-494.696	1497.148	-372.364	1233.248	0
20654.068	-506.300	1511.291	-380.242	1240.115	0
20654.193	-517.207	1525.564	-386.978	1246.499	0
20654.318	-527.827	1539.637	-393.149	1251.946	0
20654.443	-537.830	1553.464	-398.599	1256.927	0
20654.568	-547.755	1568.696	-403.878	1263.069	0
20654.693	-557.509	1583.881	-408.823	1268.844	0
20654.818	-567.123	1599.025	-413.503	1274.326	0
20654.943	-576.367	1614.125	-418.097	1280.107	0
20655.068	-584.155	1629.354	-421.467	1286.095	0
20655.193	-590.759	1644.044	-424.186	1291.461	0
20655.318	-596.119	1658.766	-426.146	1296.658	0
20655.443	-598.144	1676.794	-425.413	1305.228	0
20655.568	-600.072	1694.953	-425.397	1314.047	0
20655.693	-602.130	1712.771	-426.337	1322.645	0
20655.818	-604.270	1730.145	-428.168	1330.942	0
20655.943	-606.575	1746.465	-430.896	1338.557	0
20656.068	-609.791	1762.965	-435.145	1346.788	0
20656.193	-612.845	1779.810	-439.526	1356.530	0
20656.318	-615.584	1797.043	-443.712	1367.948	0
20656.443	-619.876	1811.516	-449.002	1378.447	0
20656.568	-626.418	1822.959	-455.789	1387.571	0
20656.693	-633.752	1833.333	-462.245	1397.003	0
20656.818	-642.164	1842.388	-468.694	1406.420	0
20656.943	-653.180	1848.854	-476.716	1414.282	0
20657.068	-665.539	1853.340	-484.859	1420.792	0
20657.193	-678.045	1857.698	-491.972	1427.483	0
20657.318	-690.913	1861.799	-498.753	1434.199	0
20657.443	-704.623	1865.160	-505.735	1440.375	0
20657.568	-719.845	1867.010	-513.530	1445.121	0
20657.693	-735.075	1868.996	-520.875	1449.749	0
20657.818	-750.322	1871.040	-527.787	1454.142	0
20657.943	-765.433	1872.905	-534.303	1457.707	0
20658.068	-780.619	1875.109	-540.786	1460.682	0
20658.193	-795.877	1877.724	-547.283	1463.117	0
20658.318	-811.129	1880.381	-553.918	1464.606	0
20658.443	-826.341	1883.133	-560.677	1465.193	0
20658.568	-841.514	1886.130	-567.583	1465.381	0
20658.693	-856.527	1889.804	-574.607	1465.827	0
20658.818	-866.999	1900.540	-577.373	1472.951	0
20658.943	-878.736	1909.263	-582.075	1477.894	0
20659.068	-890.590	1917.844	-587.280	1482.539	0
20659.193	-902.368	1926.536	-592.722	1487.204	0
20659.318	-912.606	1935.981	-597.218	1492.026	0
20659.443	-913.992	1947.074	-593.657	1497.919	0
20659.568	-918.484	1958.115	-594.400	1503.840	0
20659.693	-926.918	1968.461	-600.439	1508.801	0
20659.818	-938.367	1977.894	-610.912	1512.219	0
20659.943	-941.287	1989.389	-614.168	1516.726	0
20660.068	-939.497	2002.077	-614.198	1522.209	0
20660.193	-937.590	2014.621	-615.653	1527.722	0
20660.318	-935.559	2026.801	-618.545	1532.983	0
20660.443	-933.420	2038.434	-622.311	1538.159	0
20660.568	-931.222	2049.742	-626.924	1543.471	0
20660.693	-929.055	2061.291	-632.481	1549.447	0
20660.818	-926.703	2070.950	-637.835	1554.374	0
20660.943	-924.233	2080.311	-643.096	1559.732	0
20661.068	-923.587	2087.354	-650.218	1563.490	0
20661.193	-923.122	2094.144	-657.185	1567.421	0
20661.318	-921.459	2099.788	-662.489	1570.583	0
20661.443	-919.523	2104.651	-667.177	1573.318	0
20661.568	-917.847	2109.219	-671.853	1576.069	0
20661.693	-916.706	2112.869	-676.772	1578.182	0
20661.818	-915.506	2116.544	-681.377	1580.538	0
20661.943	-914.450	2120.847	-685.861	1583.687	0
20662.068	-914.698	2124.613	-691.300	1586.382	0
20662.193	-916.478	2127.961	-697.940	1588.709	0
20662.318	-917.791	2131.563	-703.791	1591.301	0
20662.443	-919.338	2135.060	-709.547	1593.816	0
20662.568	-921.945	2135.994	-716.034	1593.793	0
20662.693	-924.622	2136.629	-722.466	1593.434	0
20662.818	-927.330	2137.205	-728.805	1592.963	0
20662.943	-929.912	2137.825	-734.900	1592.482	0
20663.068	-934.894	2136.892	-743.254	1590.376	0
20663.193	-939.863	2134.606	-751.516	1586.761	0
20663.318	-944.733	2130.603	-759.700	1581.246	0
20663.443	-949.532	2126.145	-767.966	1575.064	0
20663.568	-952.637	2122.416	-774.725	1569.385	0
20663.693	-953.835	2119.384	-779.799	1564.269	0
20663.818	-956.604	2115.581	-786.725	1558.340	0
20663.943	-956.991	2112.667	-791.554	1553.191	0
20664.068	-957.583	2110.124	-796.844	1548.316	0
20664.193	-958.921	2109.282	-803.086	1545.050	0
20664.318	-960.536	2108.307	-809.686	1541.606	0
20664.443	-962.741	2106.940	-816.946	1537.710	0
20664.568	-962.811	2106.770	-822.138	1534.920	0
20664.693	-962.313	2106.363	-826.823	1531.890	0
20664.818	-961.944	2105.953	-831.703	1528.844	0
20664.943	-961.761	2105.804	-836.841	1526.042	0
20665.068	-961.437	2105.904	-841.881	1523.477	0
20665.193	-962.051	2106.058	-847.899	1520.973	0
20665.318	-963.700	2106.314	-854.957	1518.551	0
20665.443	-965.048	2106.467	-861.673	1515.981	0
20665.568	-966.174	2106.598	-868.141	1513.369	0
20665.693	-966.858	2106.753	-874.143	1510.785	0
20665.818	-967.582	2106.961	-880.160	1508.265	0
20665.943	-968.398	2107.332	-886.236	1505.927	0
20666.068	-967.490	2106.627	-890.549	1502.534	0
20666.193	-966.449	2105.734	-894.793	1498.933	0
20666.318	-965.284	2104.677	-898.995	1495.136	0
20666.443	-963.621	2103.195	-902.793	1490.879	0
20666.568	-961.083	2101.019	-905.862	1485.884	0
20666.693	-958.145	2098.878	-908.752	1480.891	0
20666.818	-954.629	2096.984	-911.319	1476.121	0
20666.943	-950.175	2095.347	-913.217	1471.609	0
20667.068	-941.128	2097.098	-910.832	1470.524	0
20667.193	-932.678	2097.891	-909.345	1468.829	0
20667.318	-927.781	2097.408	-911.738	1466.139	0
20667.443	-920.653	2097.780	-912.164	1464.416	0
20667.568	-912.639	2098.316	-911.934	1463.073	0
20667.693	-904.727	2098.786	-912.053	1461.920	0
20667.818	-896.849	2099.336	-912.463	1461.104	0
20667.943	-888.934	2100.699	-913.074	1461.350	0
20668.068	-880.990	2101.322	-913.801	1461.134	0
20668.193	-873.115	2101.045	-914.640	1460.266	0
20668.318	-865.280	2100.736	-915.653	1459.588	0
20668.443	-857.479	2100.399	-916.838	1459.108	0
20668.568	-849.719	2100.028	-918.206	1458.829	0
20668.693	-842.227	2099.021	-919.873	1458.147	0
20668.818	-837.016	2091.475	-923.781	1451.153	0
20668.943	-831.070	2087.335	-927.569	1447.845	0
20669.068	-825.034	2083.727	-931.547	1445.384	0
20669.193	-819.039	2079.744	-935.801	1442.906	0
20669.318	-812.964	2075.853	-939.902	1440.909	0
20669.443	-806.698	2072.216	-943.504	1439.499	0
20669.568	-800.280	2068.358	-946.594	1438.138	0
20669.693	-792.953	2066.219	-948.431	1438.819	0
20669.818	-789.077	2058.398	-953.405	1434.112	0
20669.943	-786.736	2051.175	-959.657	1430.551	0
20670.068	-785.850	2043.901	-967.187	1427.445	0
20670.193	-785.516	2036.566	-974.664	1424.523	0
20670.318	-785.436	2029.206	-981.653	1421.738	0
20670.443	-785.560	2021.828	-988.114	1419.082	0
20670.568	-785.914	2014.432	-994.066	1416.551	0
20670.693	-786.793	2007.001	-999.714	1413.966	0
20670.818	-790.512	1999.428	-1007.174	1410.878	0
20670.943	-801.972	1991.546	-1021.236	1406.934	0
20671.068	-810.533	1990.048	-1030.809	1408.278	0
20671.193	-819.095	1988.551	-1039.685	1408.933	0
20671.318	-827.656	1987.054	-1047.853	1408.983	0
20671.443	-836.218	1985.556	-1055.373	1408.618	0
20671.568	-844.779	1984.059	-1062.222	1407.858	0
20671.693	-853.340	1982.562	-1068.441	1406.772	0
20671.818	-861.902	1981.065	-1074.149	1405.416	0
20671.943	-870.463	1979.567	-1079.765	1403.947	0
20672.068	-879.024	1978.070	-1085.280	1402.398	0
20672.193	-887.586	1976.573	-1090.660	1400.798	0
20672.318	-896.147	1975.075	-1095.898	1399.178	0
20672.443	-904.709	1973.578	-1101.118	1397.303	0
20672.568	-913.270	1972.081	-1106.387	1395.069	0
20672.693	-921.831	1970.583	-1111.665	1392.476	0
20672.818	-930.393	1969.086	-1116.909	1389.535	0
20672.943	-938.954	1967.589	-1122.128	1386.151	0
20673.068	-947.515	1966.091	-1127.304	1382.137	0
20673.193	-956.077	1964.594	-1132.454	1377.498	0
20673.318	-964.638	1963.097	-1137.563	1372.250	0
20673.443	-973.200	1961.599	-1142.648	1366.409	0
20673.568	-981.761	1960.102	-1147.704	1359.995	0
20673.693	-990.322	1958.605	-1152.752	1353.002	0
20673.818	-996.670	1965.191	-1155.569	1353.514	0
20673.943	-1005.827	1971.223	-1162.341	1352.813	0
20674.068	-1015.763	1977.100	-1170.930	1351.334	0
