Tag:	57951
Reference:	tu26_D_05
Coast Distance (km): 	30.0
Estimation Time Delay (days): 	0.0

CNES Day	Xg	Yg	Xs	Ys	Delay
20277.004	0.000	0.000	0.000	0.000	0
20277.129	3.447	4.758	999.000	999.000	0
20277.254	6.895	9.516	999.000	999.000	0
20277.379	10.342	14.274	999.000	999.000	0
20277.504	13.790	19.032	999.000	999.000	0
20277.629	17.237	23.790	999.000	999.000	0
20277.754	20.685	28.548	999.000	999.000	0
20277.879	24.132	33.306	999.000	999.000	0
20278.004	27.580	38.064	999.000	999.000	0
20278.129	31.027	42.821	999.000	999.000	0
20278.254	34.475	47.579	45.266	46.061	0
20278.379	37.922	52.337	50.564	50.577	0
20278.504	41.370	57.095	56.636	55.155	0
20278.629	44.817	61.853	63.467	59.951	0
20278.754	48.265	66.611	69.681	64.814	0
20278.879	51.712	71.369	75.081	69.721	0
20279.004	55.159	76.127	79.694	74.680	0
20279.129	58.607	80.885	83.569	79.695	0
20279.254	62.054	85.643	86.751	84.773	0
20279.379	65.502	90.401	89.304	89.923	0
20279.504	69.613	99.443	91.922	99.437	0
20279.629	72.245	109.094	92.352	109.471	0
20279.754	75.163	118.929	92.601	119.321	0
20279.879	79.060	129.613	93.367	129.619	0
20280.004	84.024	137.989	94.724	137.133	0
20280.129	89.857	145.311	97.275	143.335	0
20280.254	91.142	154.818	95.644	151.556	0
20280.379	91.167	164.933	93.048	160.300	0
20280.504	90.523	175.375	90.057	169.307	0
20280.629	89.320	186.094	86.595	178.613	0
20280.754	87.439	197.153	82.543	188.288	0
20280.879	90.315	202.069	83.326	191.829	0
20281.004	93.075	207.509	84.068	195.868	0
20281.129	94.739	214.208	83.824	201.111	0
20281.254	95.884	220.924	83.191	206.301	0
20281.379	97.043	227.580	82.685	211.369	0
20281.504	99.827	232.979	83.903	215.120	0
20281.629	104.494	236.612	87.086	217.051	0
20281.754	110.047	239.415	91.178	218.129	0
20281.879	115.331	246.386	95.007	223.356	0
20282.004	120.468	255.623	98.651	230.908	0
20282.129	125.658	264.063	102.271	237.826	0
20282.254	130.818	272.948	105.770	245.325	0
20282.379	135.979	281.832	109.150	252.938	0
20282.504	141.140	290.716	112.467	260.652	0
20282.629	146.300	299.601	115.798	268.447	0
20282.754	151.461	308.485	119.164	276.325	0
20282.879	154.602	315.724	120.549	282.628	0
20283.004	157.744	322.963	122.036	288.962	0
20283.129	160.885	330.202	123.733	295.290	0
20283.254	163.228	336.790	124.829	300.970	0
20283.379	165.570	343.379	126.089	306.664	0
20283.504	167.913	349.967	127.504	312.379	0
20283.629	170.256	356.556	129.065	318.119	0
20283.754	172.553	363.208	130.820	323.887	0
20283.879	174.908	369.780	132.877	329.534	0
20284.004	177.263	376.351	135.177	335.139	0
20284.129	179.618	382.923	137.720	340.696	0
20284.254	181.645	389.947	140.180	346.653	0
20284.379	183.749	396.999	142.911	352.583	0
20284.504	186.759	404.366	146.705	358.774	0
20284.629	189.863	411.766	150.759	364.943	0
20284.754	193.020	419.184	154.979	371.145	0
20284.879	196.226	426.619	159.371	377.380	0
20285.004	199.489	434.074	163.902	383.616	0
20285.129	202.894	441.579	168.635	389.862	0
20285.254	207.056	449.347	174.193	396.333	0
20285.379	206.274	457.563	174.889	403.212	0
20285.504	205.491	465.780	175.616	410.042	0
20285.629	204.709	473.996	176.379	416.797	0
20285.754	193.542	483.153	166.815	424.371	0
20285.879	187.945	491.805	162.726	431.327	0
20286.004	182.349	500.457	158.607	438.178	0
20286.129	176.752	509.109	154.504	444.908	0
20286.254	171.156	517.761	150.416	451.515	0
20286.379	170.100	527.775	150.874	459.365	0
20286.504	169.045	537.789	151.408	467.053	0
20286.629	167.990	547.803	151.990	474.551	0
20286.754	166.935	557.817	152.633	481.863	0
20286.879	165.879	567.831	153.336	488.989	0
20287.004	164.824	577.845	999.000	999.000	0
20287.129	163.769	587.859	999.000	999.000	0
20287.254	162.714	597.873	999.000	999.000	0
20287.379	161.658	607.887	999.000	999.000	0
20287.504	160.603	617.901	999.000	999.000	0
20287.629	161.238	628.555	167.626	529.797	0
20287.754	161.873	639.209	169.914	536.403	0
20287.879	162.508	649.863	172.113	542.812	0
20288.004	163.143	660.518	174.237	549.036	0
20288.129	163.778	671.172	176.281	555.063	0
20288.254	164.413	681.826	178.241	560.887	0
20288.379	165.048	692.480	180.257	566.603	0
20288.504	165.682	703.134	182.373	572.242	0
20288.629	161.050	717.869	179.308	581.879	0
20288.754	156.417	732.603	176.248	591.763	0
20288.879	151.784	747.338	173.184	601.990	0
20289.004	150.108	752.714	173.116	603.212	0
20289.129	147.213	761.947	171.814	608.434	0
20289.254	144.053	772.020	170.221	614.745	0
20289.379	140.797	782.467	168.511	621.690	0
20289.504	137.295	793.756	166.548	629.724	0
20289.629	134.363	803.208	165.196	636.145	0
20289.754	131.458	812.530	163.904	642.557	0
20289.879	128.925	820.106	162.993	647.353	0
20290.004	125.766	830.625	161.482	655.185	0
20290.129	122.574	841.297	159.999	663.303	0
20290.254	119.383	851.968	158.558	671.571	0
20290.379	118.520	858.816	159.463	676.185	0
20290.504	117.657	865.664	160.365	680.846	0
20290.629	116.795	872.513	161.261	685.549	0
20290.754	118.719	874.785	164.928	685.697	0
20290.879	117.436	881.141	165.367	689.886	0
20291.004	116.249	887.697	165.888	694.292	0
20291.129	115.555	892.767	166.884	697.236	0
20291.254	115.740	898.119	168.808	700.447	0
20291.379	116.042	903.034	170.897	703.213	0
20291.504	116.344	907.949	173.026	705.969	0
20291.629	116.647	912.864	175.195	708.712	0
20291.754	112.873	918.823	173.334	712.551	0
20291.879	108.564	924.539	171.032	716.220	0
20292.004	103.664	929.991	168.267	719.699	0
20292.129	98.441	935.303	165.380	723.143	0
20292.254	93.063	940.551	162.532	726.648	0
20292.379	86.961	945.543	159.141	730.041	0
20292.504	80.795	950.580	155.859	733.650	0
20292.629	74.417	955.779	152.531	737.615	0
20292.754	67.872	960.917	149.253	741.602	0
20292.879	61.094	966.041	145.991	745.609	0
20293.004	54.382	971.561	143.041	750.049	0
20293.129	47.502	976.879	140.157	754.368	0
20293.254	40.703	982.292	137.564	758.891	0
20293.379	34.087	988.426	135.352	764.269	0
20293.504	27.483	994.622	133.392	769.778	0
20293.629	20.768	1000.817	131.527	775.356	0
20293.754	14.546	1007.460	130.146	781.338	0
20293.879	8.382	1014.195	128.746	787.400	0
20294.004	2.617	1021.481	127.613	794.026	0
20294.129	-2.974	1028.928	126.470	800.837	0
20294.254	-8.535	1036.404	125.174	807.682	0
20294.379	-13.926	1044.001	123.734	814.538	0
20294.504	-19.555	1051.252	121.703	820.970	0
20294.629	-25.134	1058.637	119.355	827.494	0
20294.754	-30.717	1065.990	116.606	834.005	0
20294.879	-36.305	1073.293	113.458	840.517	0
20295.004	-41.899	1080.474	110.087	846.923	0
20295.129	-47.566	1087.490	106.454	853.189	0
20295.254	-53.447	1094.173	102.406	859.166	0
20295.379	-57.334	1099.663	100.149	864.014	0
20295.504	-61.221	1105.154	97.708	868.930	0
20295.629	-65.109	1110.644	95.083	873.875	0
20295.754	-68.996	1116.135	92.244	878.844	0
20295.879	-72.884	1121.625	89.172	883.843	0
20296.004	-76.771	1127.116	85.858	888.825	0
20296.129	-80.659	1132.606	82.290	893.776	0
20296.254	-83.963	1138.247	79.030	898.843	0
20296.379	-87.102	1143.888	75.733	903.850	0
20296.504	-90.241	1149.528	72.288	908.773	0
20296.629	-93.380	1155.169	68.690	913.614	0
20296.754	-96.519	1160.809	64.985	918.379	0
20296.879	-99.658	1166.449	61.161	923.068	0
20297.004	-102.797	1172.090	57.213	927.683	0
20297.129	-105.935	1177.730	53.207	932.222	0
20297.254	-107.867	1183.367	50.463	936.676	0
20297.379	-109.798	1189.005	47.770	941.048	0
20297.504	-111.730	1194.642	45.119	945.322	0
20297.629	-116.917	1202.279	39.247	951.484	0
20297.754	-120.936	1209.198	34.537	956.699	0
20297.879	-124.640	1215.924	30.216	961.530	0
20298.004	-126.894	1222.025	27.471	965.555	0
20298.129	-130.144	1228.587	23.861	969.907	0
20298.254	-133.921	1235.205	19.865	974.140	0
20298.379	-137.744	1241.913	15.970	978.264	0
20298.504	-141.679	1248.753	12.104	982.342	0
20298.629	-146.427	1256.539	7.553	987.241	0
20298.754	-149.343	1262.298	5.013	990.016	0
20298.879	-151.869	1267.371	3.021	992.058	0
20299.004	-154.613	1272.430	0.969	994.044	0
20299.129	-159.347	1280.275	-2.894	998.765	0
20299.254	-164.081	1288.120	-6.651	1003.532	0
20299.379	-168.814	1295.965	-10.334	1008.389	0
20299.504	-173.548	1303.809	-13.899	1013.343	0
20299.629	-178.282	1311.654	-17.294	1018.390	0
20299.754	-183.016	1319.499	-20.553	1023.590	0
20299.879	-187.750	1327.344	-23.809	1029.106	0
20300.004	-192.936	1335.072	-27.487	1034.856	0
20300.129	-197.487	1341.165	-30.449	1039.288	0
20300.254	-202.038	1347.258	-33.297	1043.954	0
20300.379	-206.589	1353.350	-36.054	1048.859	0
20300.504	-211.139	1359.443	-38.754	1054.002	0
20300.629	-215.690	1365.536	-41.410	1059.375	0
20300.754	-220.241	1371.629	-44.031	1064.960	0
20300.879	-224.792	1377.721	-46.665	1070.752	0
20301.004	-229.343	1383.814	-49.339	1076.727	0
20301.129	-233.894	1389.907	-52.135	1082.817	0
20301.254	-238.445	1395.999	-55.072	1088.991	0
20301.379	-242.996	1402.092	-58.150	1095.222	0
20301.504	-247.547	1408.185	-61.380	1101.487	0
20301.629	-252.470	1412.025	-65.141	1105.509	0
20301.754	-257.392	1415.865	999.000	999.000	0
20301.879	-262.176	1419.094	999.000	999.000	0
20302.004	-266.961	1422.323	999.000	999.000	0
20302.129	-271.745	1425.553	999.000	999.000	0
20302.254	-276.529	1428.782	999.000	999.000	0
20302.379	-281.313	1432.011	999.000	999.000	0
20302.504	-286.097	1435.240	999.000	999.000	0
20302.629	-289.431	1429.607	999.000	999.000	0
20302.754	-297.199	1426.858	999.000	999.000	0
20302.879	-305.563	1425.326	999.000	999.000	0
20303.004	-312.865	1423.964	999.000	999.000	0
20303.129	-319.977	1422.587	999.000	999.000	0
20303.254	-327.066	1421.201	999.000	999.000	0
20303.379	-333.990	1419.980	999.000	999.000	0
20303.504	-341.085	1419.145	999.000	999.000	0
20303.629	-348.196	1420.010	999.000	999.000	0
20303.754	-354.970	1421.021	999.000	999.000	0
20303.879	-360.933	1422.317	999.000	999.000	0
20304.004	-364.786	1425.188	999.000	999.000	0
20304.129	-368.735	1429.122	999.000	999.000	0
20304.254	-372.793	1433.571	999.000	999.000	0
20304.379	-377.221	1437.674	999.000	999.000	0
20304.504	-382.056	1441.578	999.000	999.000	0
20304.629	-386.963	1445.117	999.000	999.000	0
20304.754	-392.355	1449.162	999.000	999.000	0
20304.879	-398.087	1454.650	-198.479	1205.558	0
20305.004	-402.430	1460.313	-202.184	1209.524	0
20305.129	-406.085	1466.245	-205.171	1213.747	0
20305.254	-409.548	1472.388	-207.913	1218.129	0
20305.379	-412.569	1479.266	-210.155	1223.190	0
20305.504	-413.317	1485.474	-210.080	1227.573	0
20305.629	-413.924	1491.561	-209.819	1231.908	0
20305.754	-415.173	1497.655	-210.141	1236.330	0
20305.879	-417.614	1504.028	-211.589	1241.085	0
20306.004	-420.182	1510.557	-213.085	1246.027	0
20306.129	-421.729	1517.218	-213.480	1251.138	0
20306.254	-421.944	1523.722	-212.471	1256.175	0
20306.379	-422.311	1530.133	-211.516	1261.190	0
20306.504	-425.626	1535.931	-213.411	1265.659	0
20306.629	-429.438	1541.962	-215.695	1270.360	0
20306.754	-435.652	1549.128	-220.270	1276.187	0
20306.879	-441.905	1560.126	-224.756	1285.823	0
20307.004	-446.516	1570.055	-227.621	1294.221	0
20307.129	-452.120	1579.546	-231.546	1301.910	0
20307.254	-457.435	1588.813	-235.281	1309.066	0
20307.379	-462.801	1597.999	-239.230	1315.880	0
20307.504	-468.256	1607.362	-243.453	1322.654	0
20307.629	-474.328	1616.949	-248.470	1329.459	0
20307.754	-480.266	1626.949	-253.503	1336.492	0
20307.879	-485.627	1636.842	-258.071	1343.204	0
20308.004	-487.453	1644.992	-259.157	1347.889	0
20308.129	-489.287	1652.859	-260.326	1352.296	0
20308.254	-491.123	1660.668	-261.563	1356.674	0
20308.379	-492.959	1668.452	-262.856	1361.208	0
20308.504	-494.797	1676.216	-264.192	1365.912	0
20308.629	-496.636	1683.958	-265.552	1370.772	0
20308.754	-498.479	1691.661	-266.931	1375.766	0
20308.879	-500.346	1699.192	-268.355	1380.804	0
20309.004	-501.940	1705.196	-269.523	1384.534	0
20309.129	-503.535	1711.199	-270.690	1388.422	0
20309.254	-505.130	1717.202	-271.846	1392.455	0
20309.379	-506.734	1723.213	-272.987	1396.617	0
20309.504	-508.335	1729.196	-274.192	1400.888	0
20309.629	-509.935	1735.179	-275.553	1405.301	0
20309.754	-511.536	1741.162	-277.066	1409.853	0
20309.879	-513.136	1747.145	-278.742	1414.554	0
20310.004	-514.111	1753.423	-279.956	1419.681	0
20310.129	-515.086	1759.702	-281.379	1425.024	0
20310.254	-516.061	1765.980	-283.151	1430.512	0
20310.379	-513.642	1773.859	-281.890	1437.713	0
20310.504	-511.267	1780.375	-281.240	1444.096	0
20310.629	-508.884	1787.122	-281.031	1451.162	0
20310.754	-506.502	1793.874	-281.272	1458.715	0
20310.879	-504.119	1800.616	-281.903	1466.568	0
20311.004	-501.736	1807.379	-282.887	1474.741	0
20311.129	-499.343	1814.462	-284.193	1483.543	0
20311.254	-496.922	1822.414	-285.790	1493.517	0
20311.379	-494.858	1819.249	-288.046	1492.654	0
20311.504	-488.729	1823.259	-286.085	1499.176	0
20311.629	-484.079	1824.658	-285.640	1503.663	0
20311.754	-479.546	1825.851	-285.251	1508.351	0
20311.879	-475.030	1827.014	-284.806	1513.413	0
20312.004	-470.525	1828.158	-284.335	1518.810	0
20312.129	-465.238	1826.843	-283.068	1522.054	0
20312.254	-460.269	1826.547	-282.098	1526.763	0
20312.379	-457.209	1834.180	-283.029	1539.784	0
20312.504	-450.888	1830.406	-280.614	1541.425	0
20312.629	-444.391	1825.770	-278.038	1542.799	0
20312.754	-437.905	1821.062	-275.599	1544.759	0
20312.879	-431.428	1816.303	-273.265	1547.154	0
20313.004	-424.959	1811.494	-270.807	1549.638	0
20313.129	-418.501	1806.618	-268.280	1552.293	0
20313.254	-418.242	1798.303	-271.926	1551.844	0
20313.379	-415.939	1791.143	-273.610	1552.753	0
20313.504	-414.096	1783.667	-275.828	1553.665	0
20313.629	-413.098	1775.678	-278.916	1554.270	0
20313.754	-409.491	1769.026	-279.326	1556.249	0
20313.879	-402.789	1763.913	-276.649	1560.050	0
20314.004	-398.326	1757.601	-276.310	1563.191	0
20314.129	-395.637	1750.468	-277.731	1565.522	0
20314.254	-398.657	1740.864	-284.941	1565.276	0
20314.379	-387.051	1738.547	-277.571	1571.891	0
20314.504	-376.944	1736.842	-272.075	1579.152	0
20314.629	-367.141	1735.263	-267.262	1586.608	0
20314.754	-357.483	1733.742	-263.011	1594.220	0
20314.879	-350.028	1733.700	-261.062	1602.429	0
20315.004	-342.719	1733.803	-259.217	1610.069	0
20315.129	-334.145	1733.998	-256.048	1617.108	0
20315.254	-328.890	1736.428	-256.120	1625.551	0
20315.379	-324.201	1739.426	-256.391	1633.984	0
20315.504	-320.681	1742.825	-257.288	1642.225	0
20315.629	-316.847	1745.920	-257.311	1649.701	0
20315.754	-312.557	1749.004	-256.315	1656.676	0
20315.879	-311.271	1754.989	-257.746	1666.026	0
20316.004	-310.256	1760.703	-258.659	1674.844	0
20316.129	-309.806	1765.882	-259.614	1682.862	0
20316.254	-309.575	1770.865	-260.342	1690.507	0
20316.379	-309.565	1775.612	-260.873	1697.767	0
20316.504	-310.363	1779.479	-261.822	1704.031	0
20316.629	-311.457	1783.022	-262.777	1709.955	0
20316.754	-313.569	1786.776	-264.506	1716.097	0
20316.879	-316.170	1790.730	-266.486	1722.521	0
20317.004	-318.008	1794.669	-267.628	1729.072	0
20317.129	-320.146	1798.521	-269.016	1735.608	0
20317.254	-322.378	1802.424	-270.456	1742.279	0
20317.379	-324.611	1806.333	-271.853	1749.030	0
20317.504	-327.339	1810.429	-273.697	1756.022	0
20317.629	-329.618	1814.757	-275.053	1763.321	0
20317.754	-330.346	1818.159	-274.838	1769.698	0
20317.879	-331.046	1821.603	-274.598	1776.067	0
20318.004	-331.641	1825.413	-274.268	1782.735	0
20318.129	-332.278	1828.363	-274.057	1788.448	0
20318.254	-335.666	1830.561	-276.676	1793.349	0
20318.379	-338.246	1832.844	-278.687	1798.491	0
20318.504	-338.857	1836.398	-278.896	1804.990	0
20318.629	-339.528	1839.377	-279.234	1810.792	0
20318.754	-340.580	1842.012	-280.022	1816.171	0
20318.879	-343.448	1844.371	-282.705	1821.221	0
20319.004	-343.986	1848.466	-283.223	1828.074	0
20319.129	-343.992	1852.557	-283.273	1834.756	0
20319.254	-343.608	1856.659	-282.973	1841.247	0
20319.379	-342.798	1860.786	-282.270	1847.579	0
20319.504	-341.298	1864.974	-280.873	1853.794	0
20319.629	-337.860	1869.361	-277.514	1860.007	0
20319.754	-339.747	1873.115	-279.368	1865.296	0
20319.879	-341.634	1876.869	-281.308	1870.535	0
20320.004	-342.301	1880.631	-282.107	1875.719	0
20320.129	-341.268	1884.822	-281.236	1881.218	0
20320.254	-342.365	1888.130	-282.468	1885.649	0
20320.379	-343.427	1891.064	-283.705	1889.621	0
20320.504	-344.626	1895.266	-285.124	1894.812	0
20320.629	-345.691	1899.306	-286.460	1899.770	0
20320.754	-347.070	1903.821	-288.163	1905.128	0
20320.879	-348.450	1908.336	-289.922	1910.409	0
20321.004	-350.447	1914.032	-292.343	1916.785	0
20321.129	-350.913	1919.135	-293.274	1922.459	0
20321.254	-350.912	1924.044	-293.746	1927.808	0
20321.379	-350.996	1928.991	-294.301	1933.123	0
20321.504	-352.057	1934.411	-295.840	1938.893	0
20321.629	-353.293	1939.878	-297.566	1944.710	0
20321.754	-354.594	1945.244	-299.349	1950.416	0
20321.879	-355.221	1950.872	-300.435	1956.374	0
20322.004	-355.916	1956.120	-301.551	1961.930	0
20322.129	-356.865	1961.491	-302.872	1967.603	0
20322.254	-358.250	1967.072	-304.553	1973.525	0
20322.379	-361.307	1973.458	-307.821	1980.300	0
20322.504	-355.389	1977.295	-301.996	1984.615	0
20322.629	-348.719	1980.591	-295.408	1988.288	0
20322.754	-344.989	1984.938	-291.781	1992.896	0
20322.879	-341.745	1989.459	-288.630	1997.621	0
20323.004	-346.951	1998.582	-293.929	2006.903	0
20323.129	-347.703	2005.223	-294.687	2013.874	0
20323.254	-345.843	2010.693	-292.804	2019.733	0
20323.379	-334.654	2012.093	-281.586	2021.517	0
20323.504	-329.754	2017.044	-276.734	2026.607	0
20323.629	-341.675	2029.427	-288.711	2039.049	0
20323.754	-348.535	2037.923	-295.507	2047.898	0
20323.879	-353.409	2044.882	-300.279	2055.348	0
20324.004	-357.069	2050.898	-303.823	2061.942	0
20324.129	-359.646	2056.073	-306.282	2067.749	0
20324.254	-360.835	2060.167	-307.364	2072.498	0
20324.379	-359.350	2062.177	-305.784	2075.150	0
20324.504	-352.846	2060.311	-299.173	2073.882	0
20324.629	-356.228	2069.883	-302.393	2083.946	0
20324.754	-357.460	2076.504	-303.592	2091.119	0
20324.879	-360.056	2082.362	-306.250	2097.560	0
20325.004	-359.825	2086.639	-306.169	2102.461	0
20325.129	-358.739	2090.803	-305.297	2107.266	0
20325.254	-360.960	2096.627	-307.761	2113.735	0
20325.379	-362.789	2102.186	-309.874	2119.948	0
20325.504	-361.541	2108.144	-308.947	2126.561	0
20325.629	-364.586	2114.661	-312.335	2133.713	0
20325.754	-368.982	2121.470	-316.956	2141.055	0
20325.879	-373.284	2128.355	-321.373	2148.408	0
20326.004	-377.486	2135.320	-325.561	2155.811	0
20326.129	-375.227	2133.422	-323.154	2154.304	0
20326.254	-376.209	2135.914	-323.857	2157.128	0
20326.379	-377.512	2138.841	-324.749	2160.334	0
20326.504	-378.468	2141.749	-325.159	2163.468	0
20326.629	-379.031	2144.685	-325.046	2166.573	0
20326.754	-379.905	2148.208	-325.214	2170.217	0
20326.879	-380.365	2150.119	-324.941	2172.200	0
20327.004	-382.004	2151.862	-325.830	2173.971	0
20327.129	-381.750	2153.876	-324.816	2175.978	0
20327.254	-380.568	2156.021	-322.862	2178.076	0
20327.379	-379.386	2158.167	-320.893	2180.132	0
20327.504	-383.315	2162.888	-324.021	2184.724	0
20327.629	-387.245	2167.608	-327.173	2189.279	0
20327.754	-391.174	2172.329	-330.371	2193.669	0
20327.879	-395.103	2177.049	-333.603	2197.881	0
20328.004	-399.032	2181.770	-336.858	2201.899	0
20328.129	-402.961	2186.490	-340.125	2205.712	0
20328.254	-406.890	2191.210	-343.398	2209.319	0
20328.379	-410.819	2195.931	-346.697	2212.800	0
20328.504	-415.214	2200.886	-350.479	2216.397	0
20328.629	-419.608	2205.840	-354.272	2219.870	0
20328.754	-424.003	2210.795	-358.233	2223.232	0
20328.879	-428.397	2215.750	-362.352	2226.455	0
20329.004	-432.792	2220.705	-366.613	2229.512	0
20329.129	-437.186	2225.659	-370.982	2232.394	0
20329.254	-441.580	2230.614	-375.434	2235.086	0
20329.379	-445.352	2233.147	-379.342	2235.146	0
20329.504	-449.124	2235.680	-383.413	2234.993	0
20329.629	-452.896	2238.214	-387.644	2234.622	0
20329.754	-456.454	2239.918	-391.655	2233.656	0
20329.879	-458.593	2241.666	-394.254	2232.987	0
20330.004	-461.382	2243.393	-397.502	2232.573	0
20330.129	-464.351	2245.116	-400.932	2232.429	0
20330.254	-467.701	2246.826	-404.749	2232.559	0
20330.379	-470.610	2248.604	-408.136	2233.044	0
20330.504	-473.519	2250.383	-411.531	2233.827	0
20330.629	-476.427	2252.161	-414.939	2234.911	0
20330.754	-476.314	2251.951	-415.278	2234.029	0
20330.879	-476.508	2251.464	-415.866	2232.923	0
