Tag:	57118
Reference:	tu21_048_05
Coast Distance (km): 	30.0
Estimation Time Delay (days): 	0.0

CNES Day	Xg	Yg	Xs	Ys	Delay
20516.355	0.000	0.000	0.000	0.000	0
20516.480	-2.474	-1.720	999.000	999.000	0
20516.605	-4.947	-3.440	999.000	999.000	0
20516.730	-7.421	-5.160	999.000	999.000	0
20516.855	-9.894	-6.880	999.000	999.000	0
20516.980	-12.368	-8.600	-10.229	-9.522	0
20517.105	-14.841	-10.320	-12.310	-11.419	0
20517.230	-17.315	-12.040	-14.425	-13.309	0
20517.355	-19.788	-13.760	-16.569	-15.191	0
20517.480	-22.262	-15.480	-18.741	-17.066	0
20517.605	-24.735	-17.200	-20.937	-18.933	0
20517.730	-27.209	-18.920	-23.122	-20.792	0
20517.855	-29.682	-20.640	-25.292	-22.642	0
20517.980	-32.156	-22.360	-27.451	-24.484	0
20518.105	-34.629	-24.080	-29.601	-26.316	0
20518.230	-34.922	-26.109	-29.564	-28.447	0
20518.355	-34.574	-28.562	-28.875	-30.990	0
20518.480	-34.311	-30.703	-28.258	-33.210	0
20518.605	-34.382	-31.628	-27.960	-34.201	0
20518.730	-33.553	-30.533	-26.774	-33.181	0
20518.855	-32.724	-29.439	-25.592	-32.173	0
20518.980	-31.895	-28.345	-24.417	-31.180	0
20519.105	-31.066	-27.250	-23.247	-30.200	0
20519.230	-30.237	-26.156	-22.084	-29.235	0
20519.355	-29.366	-24.966	-20.884	-28.187	0
20519.480	-28.495	-23.776	-19.689	-27.154	0
20519.605	-27.623	-22.586	-18.501	-26.134	0
20519.730	-26.575	-20.914	-17.164	-24.657	0
20519.855	-25.527	-19.242	-15.859	-23.207	0
20519.980	-24.479	-17.570	-14.586	-21.784	0
20520.105	-23.431	-15.898	-13.346	-20.387	0
20520.230	-22.383	-14.226	-12.140	-19.016	0
20520.355	-21.488	-11.650	-11.120	-16.768	0
20520.480	-20.904	-9.497	-10.447	-14.971	0
20520.605	-20.466	-7.544	-9.958	-13.401	0
20520.730	-20.141	-5.744	-9.542	-11.961	0
20520.855	-19.945	-4.120	-9.201	-10.665	0
20520.980	-19.992	-2.826	-9.048	-9.668	0
20521.105	-21.292	-3.238	-10.093	-10.344	0
20521.230	-21.724	0.429	-10.224	-6.906	0
20521.355	-22.251	3.206	-10.361	-4.330	0
20521.480	-23.032	5.229	-10.668	-2.477	0
20521.605	-23.882	7.044	-10.976	-0.802	0
20521.730	-24.867	8.455	-11.288	0.485	0
20521.855	-25.424	11.144	-11.031	3.066	0
20521.980	-25.981	13.834	-10.627	5.659	0
20522.105	-25.995	14.936	-9.538	6.677	0
20522.230	-26.422	17.244	-8.734	8.917	0
20522.355	-25.577	15.830	-6.525	7.447	0
20522.480	-24.731	14.416	-4.203	5.996	0
20522.605	-23.886	13.001	-1.766	4.564	0
20522.730	-23.041	11.587	0.607	3.111	0
20522.855	-22.333	10.087	2.744	1.543	0
20522.980	-21.986	8.360	4.417	-0.278	0
20523.105	-21.330	6.827	6.296	-1.933	0
20523.230	-20.619	5.328	8.124	-3.581	0
20523.355	-20.362	3.545	9.393	-5.540	0
20523.480	-20.105	1.762	10.550	-7.526	0
20523.605	-19.848	-0.021	11.592	-9.540	0
20523.730	-19.591	-1.804	12.527	-11.579	0
20523.855	-19.272	-2.769	13.416	-12.830	0
20523.980	-18.952	-3.733	14.203	-14.112	0
20524.105	-18.638	-4.773	14.890	-15.500	0
20524.230	-18.297	-5.444	15.512	-16.548	0
20524.355	-17.955	-6.114	16.043	-17.624	0
20524.480	-17.613	-6.785	16.482	-18.729	0
20524.605	-17.271	-7.455	16.830	-19.861	0
20524.730	-16.839	-8.202	17.352	-21.024	0
20524.855	-16.349	-8.997	18.049	-22.177	0
20524.980	-15.859	-9.792	18.861	-23.273	0
20525.105	-14.941	-10.948	20.218	-24.671	0
20525.230	-14.023	-12.104	21.692	-26.012	0
20525.355	-13.085	-13.238	23.302	-27.274	0
20525.480	-10.313	-12.406	26.864	-26.515	0
20525.605	-8.401	-11.908	29.705	-26.035	0
20525.730	-7.183	-11.525	999.000	999.000	0
20525.855	-6.014	-12.288	999.000	999.000	0
20525.980	-4.398	-11.980	999.000	999.000	0
20526.105	-2.512	-9.814	999.000	999.000	0
20526.230	-0.596	-8.065	999.000	999.000	0
20526.355	1.562	-6.944	999.000	999.000	0
20526.480	3.071	-6.243	999.000	999.000	0
20526.605	4.504	-5.457	999.000	999.000	0
20526.730	5.551	-4.709	999.000	999.000	0
20526.855	5.392	-5.519	999.000	999.000	0
20526.980	5.020	-6.621	999.000	999.000	0
20527.105	4.608	-7.769	999.000	999.000	0
20527.230	4.168	-8.943	999.000	999.000	0
20527.355	3.766	-10.051	999.000	999.000	0
20527.480	2.981	-12.123	999.000	999.000	0
20527.605	0.160	-15.048	999.000	999.000	0
20527.730	-3.554	-18.530	999.000	999.000	0
20527.855	0.280	-18.382	999.000	999.000	0
20527.980	4.114	-18.235	999.000	999.000	0
20528.105	7.378	-18.867	999.000	999.000	0
20528.230	9.092	-20.472	999.000	999.000	0
20528.355	9.580	-21.983	999.000	999.000	0
20528.480	10.885	-23.226	999.000	999.000	0
20528.605	13.422	-24.489	999.000	999.000	0
20528.730	16.718	-24.591	999.000	999.000	0
20528.855	18.205	-25.346	999.000	999.000	0
20528.980	19.691	-26.100	999.000	999.000	0
20529.105	18.336	-25.998	999.000	999.000	0
20529.230	17.645	-25.465	999.000	999.000	0
20529.355	17.101	-24.812	999.000	999.000	0
20529.480	16.400	-24.227	999.000	999.000	0
20529.605	15.719	-23.631	999.000	999.000	0
20529.730	15.046	-23.029	999.000	999.000	0
20529.855	14.354	-22.446	999.000	999.000	0
20529.980	13.029	-21.278	999.000	999.000	0
20530.105	11.335	-19.929	999.000	999.000	0
20530.230	10.691	-18.890	999.000	999.000	0
20530.355	8.518	-17.846	999.000	999.000	0
20530.480	5.487	-16.719	999.000	999.000	0
20530.605	3.234	-15.679	999.000	999.000	0
20530.730	1.989	-14.880	999.000	999.000	0
20530.855	0.156	-14.056	999.000	999.000	0
20530.980	-1.445	-13.001	999.000	999.000	0
20531.105	-2.790	-11.891	999.000	999.000	0
20531.230	-4.037	-10.825	999.000	999.000	0
20531.355	-4.686	-10.027	999.000	999.000	0
20531.480	-6.889	-9.342	999.000	999.000	0
20531.605	-8.505	-8.646	999.000	999.000	0
20531.730	-9.682	-7.568	999.000	999.000	0
20531.855	-10.527	-6.794	38.971	0.360	0
20531.980	-11.308	-6.120	39.275	0.745	0
20532.105	-12.986	-4.749	38.735	1.781	0
20532.230	-14.363	-3.201	38.548	2.951	0
20532.355	-15.693	-1.625	38.462	4.103	0
20532.480	-16.896	-0.150	38.570	5.105	0
20532.605	-18.047	1.277	38.801	6.008	0
20532.730	-15.850	3.480	42.215	7.759	0
20532.855	-13.525	5.443	45.588	9.362	0
20532.980	-11.554	7.226	48.438	10.879	0
20533.105	-9.687	8.975	51.009	12.455	0
20533.230	-7.827	10.721	999.000	999.000	0
20533.355	-5.969	12.499	999.000	999.000	0
20533.480	-4.158	13.922	999.000	999.000	0
20533.605	-2.542	15.095	999.000	999.000	0
20533.730	-1.354	15.293	999.000	999.000	0
20533.855	-0.138	14.136	999.000	999.000	0
20533.980	1.066	13.346	999.000	999.000	0
20534.105	2.107	12.485	999.000	999.000	0
20534.230	3.105	11.524	999.000	999.000	0
20534.355	4.170	10.497	999.000	999.000	0
20534.480	5.415	9.290	999.000	999.000	0
20534.605	6.942	7.857	999.000	999.000	0
20534.730	5.663	6.578	999.000	999.000	0
20534.855	4.384	5.298	999.000	999.000	0
20534.980	3.106	4.018	999.000	999.000	0
20535.105	0.714	2.879	999.000	999.000	0
20535.230	-1.677	1.741	999.000	999.000	0
20535.355	-4.068	0.602	999.000	999.000	0
20535.480	-6.460	-0.537	999.000	999.000	0
20535.605	-8.851	-1.676	999.000	999.000	0
20535.730	-9.318	-1.556	999.000	999.000	0
20535.855	-9.786	-1.436	999.000	999.000	0
20535.980	-10.253	-1.316	999.000	999.000	0
20536.105	-10.720	-1.196	999.000	999.000	0
20536.230	-11.187	-1.076	999.000	999.000	0
20536.355	-11.654	-0.956	64.128	11.388	0
20536.480	-12.122	-0.837	64.628	11.321	0
20536.605	-11.495	-0.002	66.216	11.943	0
20536.730	-12.996	2.535	65.706	14.262	0
20536.855	-12.443	3.430	67.296	14.940	0
20536.980	-12.855	5.106	67.952	16.400	0
20537.105	-13.268	6.783	68.646	17.861	0
20537.230	-13.680	8.459	69.379	19.322	0
20537.355	-14.092	10.136	70.149	20.784	0
20537.480	-14.504	11.812	70.958	22.245	0
20537.605	-12.823	11.071	73.897	21.287	0
20537.730	-10.282	9.578	77.700	19.598	0
20537.855	-7.515	7.889	999.000	999.000	0
20537.980	-4.595	6.066	999.000	999.000	0
20538.105	-3.205	3.081	999.000	999.000	0
20538.230	-3.904	-0.906	999.000	999.000	0
20538.355	-4.181	-3.333	999.000	999.000	0
20538.480	-2.865	-6.216	999.000	999.000	0
20538.605	1.904	-9.955	999.000	999.000	0
20538.730	1.460	-13.980	999.000	999.000	0
20538.855	-0.996	-18.052	999.000	999.000	0
20538.980	-3.590	-22.154	999.000	999.000	0
20539.105	-6.262	-26.268	999.000	999.000	0
20539.230	-8.996	-30.385	999.000	999.000	0
20539.355	-11.807	-34.490	999.000	999.000	0
20539.480	-14.944	-38.476	43.825	-37.917	0
20539.605	-13.225	-39.889	46.191	-39.468	0
20539.730	-11.565	-41.329	48.504	-41.059	0
20539.855	-8.848	-42.428	51.894	-42.319	0
20539.980	-7.016	-43.904	999.000	999.000	0
20540.105	-5.418	-45.509	999.000	999.000	0
20540.230	-3.475	-47.083	999.000	999.000	0
20540.355	-1.449	-48.538	999.000	999.000	0
20540.480	-0.524	-50.223	999.000	999.000	0
20540.605	2.197	-51.134	999.000	999.000	0
20540.730	5.374	-51.924	999.000	999.000	0
20540.855	5.491	-54.161	999.000	999.000	0
20540.980	5.531	-56.408	999.000	999.000	0
20541.105	5.503	-58.665	999.000	999.000	0
20541.230	6.535	-57.530	999.000	999.000	0
20541.355	8.143	-54.851	999.000	999.000	0
20541.480	9.469	-53.251	999.000	999.000	0
20541.605	10.315	-52.288	999.000	999.000	0
20541.730	10.390	-52.715	999.000	999.000	0
20541.855	11.821	-49.549	999.000	999.000	0
20541.980	13.015	-45.776	999.000	999.000	0
20542.105	14.144	-41.990	999.000	999.000	0
20542.230	15.290	-38.209	999.000	999.000	0
20542.355	16.952	-34.546	999.000	999.000	0
20542.480	16.071	-30.306	999.000	999.000	0
20542.605	14.503	-25.926	999.000	999.000	0
20542.730	12.829	-21.541	999.000	999.000	0
20542.855	10.934	-19.274	999.000	999.000	0
20542.980	9.039	-17.008	999.000	999.000	0
20543.105	7.144	-14.741	999.000	999.000	0
20543.230	6.050	-17.889	999.000	999.000	0
20543.355	4.075	-16.168	999.000	999.000	0
20543.480	2.079	-14.369	999.000	999.000	0
20543.605	0.473	-13.563	999.000	999.000	0
20543.730	-1.124	-12.752	999.000	999.000	0
20543.855	-2.782	-11.925	999.000	999.000	0
20543.980	-4.441	-11.098	999.000	999.000	0
20544.105	-6.099	-10.271	999.000	999.000	0
20544.230	-9.438	-8.616	999.000	999.000	0
20544.355	-12.773	-6.959	-77.180	11.771	0
20544.480	-16.106	-5.300	-80.865	13.257	0
20544.605	-19.438	-3.641	-84.622	14.728	0
20544.730	-22.767	-1.981	-88.176	16.213	0
20544.855	-26.094	-0.320	-91.485	17.720	0
20544.980	-29.751	-0.860	-94.899	17.043	0
20545.105	-33.409	-1.400	-98.152	16.384	0
20545.230	-37.066	-1.940	-101.257	15.741	0
20545.355	-40.723	-2.480	-104.228	15.114	0
20545.480	-44.380	-3.021	-107.082	14.503	0
20545.605	-48.078	-3.820	-109.877	13.649	0
20545.730	-51.776	-4.619	-112.790	12.763	0
20545.855	-55.541	-5.552	-115.923	11.705	0
20545.980	-59.338	-6.552	-119.220	10.544	0
20546.105	-63.136	-7.552	-122.636	9.345	0
20546.230	-66.933	-8.551	-126.167	8.109	0
20546.355	-70.730	-9.551	-129.804	6.834	0
20546.480	-74.527	-10.551	-133.544	5.519	0
20546.605	-78.893	-12.329	-137.951	3.385	0
20546.730	-83.896	-11.038	-143.046	4.278	0
20546.855	-88.827	-10.093	-148.131	4.788	0
20546.980	-93.761	-9.132	-153.302	5.271	0
20547.105	-98.704	-8.127	-158.560	5.766	0
20547.230	-103.659	-7.066	-163.890	6.289	0
20547.355	-108.627	-5.943	-169.283	6.850	0
20547.480	-113.268	-5.088	-174.383	7.121	0
20547.605	-117.794	-4.449	-179.396	7.160	0
20547.730	-122.682	-3.001	-184.601	8.080	0
20547.855	-127.475	-1.764	-189.518	8.875	0
20547.980	-131.767	-1.647	-193.741	8.634	0
20548.105	-136.059	-1.530	-197.811	8.466	0
20548.230	-140.351	-1.413	-201.749	8.365	0
20548.355	-146.080	-2.426	-207.014	7.196	0
20548.480	-151.379	-3.101	-211.768	6.417	0
20548.605	-155.612	-2.937	-215.398	6.523	0
20548.730	-161.623	-4.172	-220.760	5.234	0
20548.855	-167.188	-5.224	-225.636	4.125	0
20548.980	-172.787	-6.290	-230.505	2.996	0
20549.105	-178.383	-7.355	-235.331	1.863	0
20549.230	-183.980	-8.420	-240.120	0.725	0
20549.355	-189.642	-9.511	-244.933	-0.442	0
20549.480	-195.218	-10.568	-249.623	-1.574	0
20549.605	-201.056	-13.767	-254.539	-4.850	0
20549.730	-207.159	-17.474	-259.582	-8.667	0
20549.855	-213.285	-21.226	-264.503	-12.568	0
20549.980	-219.447	-25.046	-269.321	-16.571	0
20550.105	-225.652	-28.950	-274.043	-20.683	0
20550.230	-230.962	-32.625	-277.722	-24.585	0
20550.355	-236.101	-36.451	-281.071	-28.649	0
20550.480	-241.862	-41.387	-284.866	-33.827	0
20550.605	-247.959	-46.375	-288.820	-39.067	0
20550.730	-254.828	-51.479	-293.624	-44.418	0
20550.855	-259.966	-56.209	-296.818	-49.383	0
20550.980	-265.198	-61.050	-300.226	-54.454	0
20551.105	-270.538	-65.982	-303.859	-59.616	0
20551.230	-275.999	-71.019	-307.731	-64.885	0
20551.355	-281.684	-76.249	-311.945	-70.358	0
20551.480	-288.474	-82.438	-317.401	-76.811	0
20551.605	-293.083	-86.464	-320.772	-81.127	0
20551.730	-297.692	-90.489	-324.134	-85.462	0
20551.855	-302.301	-94.515	-327.474	-89.819	0
20551.980	-306.910	-98.541	-330.791	-94.200	0
20552.105	-311.519	-102.567	-334.086	-98.606	0
20552.230	-316.128	-106.593	-337.358	-103.039	0
20552.355	-320.737	-110.619	-340.609	-107.501	0
20552.480	-325.346	-114.645	-343.839	-111.993	0
20552.605	-329.955	-118.671	-347.049	-116.518	0
20552.730	-334.564	-122.697	-350.243	-121.067	0
20552.855	-339.173	-126.723	-353.422	-125.643	0
20552.980	-343.782	-130.749	-356.590	-130.244	0
20553.105	-348.391	-134.774	-359.746	-134.872	0
20553.230	-353.000	-138.800	-362.892	-139.528	0
20553.355	-357.609	-142.826	-366.028	-144.210	0
20553.480	-362.219	-146.852	-369.153	-148.921	0
20553.605	-366.828	-150.878	-372.268	-153.660	0
20553.730	-369.613	-156.006	-373.632	-159.550	0
20553.855	-372.499	-161.135	-375.168	-165.491	0
20553.980	-375.397	-165.152	-376.791	-170.375	0
20554.105	-378.739	-168.863	999.000	999.000	0
20554.230	-382.526	-172.522	999.000	999.000	0
20554.355	-386.685	-176.203	999.000	999.000	0
20554.480	-390.948	-179.877	999.000	999.000	0
20554.605	-395.288	-183.546	999.000	999.000	0
20554.730	-400.306	-186.930	999.000	999.000	0
20554.855	-405.641	-190.324	999.000	999.000	0
20554.980	-411.532	-194.139	999.000	999.000	0
20555.105	-418.010	-198.487	999.000	999.000	0
20555.230	-425.971	-203.179	999.000	999.000	0
20555.355	-434.107	-207.996	-452.335	-236.556	0
20555.480	-442.327	-212.918	-459.081	-242.604	0
20555.605	-450.519	-217.839	-465.586	-248.565	0
20555.730	-458.680	-222.767	-472.051	-254.459	0
20555.855	-466.660	-227.498	-478.367	-260.090	0
20555.980	-475.069	-232.374	-485.142	-265.797	0
20556.105	-484.837	-237.656	-493.311	-271.836	0
20556.230	-490.467	-243.642	-497.380	-278.496	0
20556.355	-496.097	-249.628	-501.462	-285.088	0
20556.480	-501.727	-255.614	-505.557	-291.611	0
20556.605	-507.356	-261.600	-509.662	-298.066	0
20556.730	-512.986	-267.586	-513.784	-304.481	0
20556.855	-518.616	-273.572	-517.935	-310.862	0
20556.980	-524.246	-279.558	-522.115	-317.207	0
20557.105	-529.875	-285.544	-526.319	-323.522	0
20557.230	-535.505	-291.530	-530.544	-329.806	0
20557.355	-541.135	-297.516	-534.788	-336.063	0
20557.480	-546.764	-303.502	-539.042	-342.300	0
20557.605	-552.394	-309.488	-543.321	-348.521	0
20557.730	-558.024	-315.474	-547.606	-354.722	0
20557.855	-563.654	-321.460	-551.894	-360.902	0
20557.980	-569.283	-327.446	-556.182	-367.061	0
20558.105	-574.913	-333.433	-560.472	-373.201	0
20558.230	-580.543	-339.419	-564.761	-379.324	0
20558.355	-586.172	-345.405	-569.060	-385.435	0
20558.480	-591.044	-347.859	-572.622	-388.007	0
20558.605	-595.916	-350.313	-576.182	-390.579	0
20558.730	-600.788	-352.767	-579.756	-393.154	0
20558.855	-606.235	-353.516	-583.920	-394.029	0
20558.980	-611.315	-355.356	-587.720	-396.003	0
20559.105	-616.358	-357.301	-591.488	-398.096	0
20559.230	-621.334	-359.448	-595.182	-400.410	0
20559.355	-626.374	-361.404	-598.928	-402.555	0
20559.480	-631.521	-363.042	-602.759	-404.408	0
20559.605	-636.669	-364.681	-606.560	-406.289	0
20559.730	-642.046	-366.319	-610.559	-408.217	0
20559.855	-648.438	-367.956	-615.545	-410.193	0
20559.980	-654.831	-369.593	-620.513	-412.219	0
20560.105	-661.223	-371.231	-625.486	-414.307	0
20560.230	-667.616	-372.868	-630.463	-416.456	0
20560.355	-674.009	-374.506	-635.440	-418.661	0
20560.480	-680.401	-376.143	-640.415	-420.923	0
20560.605	-688.899	-379.132	-647.498	-424.584	0
20560.730	-696.838	-381.763	-654.085	-427.861	0
20560.855	-705.266	-384.707	-661.229	-431.409	0
20560.980	-713.694	-387.652	-668.444	-434.911	0
20561.105	-722.167	-390.673	-675.772	-438.440	0
20561.230	-730.427	-393.810	-682.956	-442.030	0
20561.355	-738.651	-396.913	-690.163	-445.531	0
20561.480	-747.658	-399.423	-698.217	-448.390	0
20561.605	-756.245	-402.305	-705.917	-451.582	0
20561.730	-764.492	-406.238	-713.305	-455.828	0
20561.855	-770.975	-409.525	-718.956	-459.440	0
20561.980	-776.819	-412.577	-723.990	-462.825	0
20562.105	-782.315	-415.504	-728.695	-466.095	0
20562.230	-787.515	-418.328	-733.121	-469.275	0
20562.355	-792.336	-421.024	-737.186	-472.341	0
20562.480	-796.390	-423.469	-740.498	-475.168	0
20562.605	-798.573	-425.287	-741.952	-477.379	0
20562.730	-805.479	-427.729	-748.118	-480.222	0
20562.855	-812.384	-430.170	-754.274	-483.090	0
20562.980	-819.290	-432.611	-760.418	-485.979	0
20563.105	-826.196	-435.052	-766.552	-488.886	0
20563.230	-835.070	-438.252	-774.644	-492.568	0
20563.355	-842.493	-440.965	-781.277	-495.781	0
20563.480	-849.916	-443.678	-787.899	-499.007	0
20563.605	-857.339	-446.391	-794.509	-502.246	0
20563.730	-864.654	-449.002	-800.971	-505.436	0
20563.855	-871.968	-451.612	-807.390	-508.686	0
20563.980	-879.283	-454.222	-813.771	-511.993	0
20564.105	-886.597	-456.832	-820.115	-515.352	0
20564.230	-891.751	-456.995	-824.266	-516.311	0
20564.355	-896.907	-457.143	-828.372	-517.300	0
20564.480	-902.066	-457.281	-832.435	-518.321	0
20564.605	-907.227	-457.410	-836.455	-519.370	0
20564.730	-912.390	-457.529	-840.510	-520.433	0
20564.855	-917.557	-457.628	-844.616	-521.495	0
20564.980	-923.376	-458.670	-849.416	-523.520	0
20565.105	-929.194	-459.713	-854.258	-525.559	0
20565.230	-935.013	-460.756	-859.136	-527.610	0
20565.355	-940.831	-461.799	-864.043	-529.671	0
20565.480	-946.650	-462.841	-868.972	-531.740	0
20565.605	-952.468	-463.884	-873.904	-533.809	0
20565.730	-958.287	-464.927	-878.739	-535.848	0
20565.855	-964.105	-465.970	-883.475	-537.855	0
20565.980	-969.924	-467.012	-888.125	-539.835	0
20566.105	-975.742	-468.055	-892.703	-541.793	0
20566.230	-981.561	-469.098	-897.222	-543.731	0
20566.355	-987.379	-470.141	-901.696	-545.653	0
20566.480	-993.198	-471.183	-906.134	-547.563	0
20566.605	-999.016	-472.226	-910.543	-549.462	0
20566.730	-1004.835	-473.269	-914.962	-551.382	0
20566.855	-1010.653	-474.311	-919.402	-553.330	0
20566.980	-1016.472	-475.354	-923.863	-555.304	0
20567.105	-1022.290	-476.397	-928.345	-557.307	0
20567.230	-1028.109	-477.440	999.000	999.000	0
20567.355	-1023.817	-478.766	999.000	999.000	0
20567.480	-1019.588	-480.119	999.000	999.000	0
20567.605	-1025.184	-481.974	999.000	999.000	0
20567.730	-1030.780	-483.830	999.000	999.000	0
20567.855	-1037.585	-485.737	999.000	999.000	0
20567.980	-1042.899	-487.572	999.000	999.000	0
20568.105	-1047.781	-489.385	999.000	999.000	0
20568.230	-1052.477	-491.196	999.000	999.000	0
20568.355	-1056.413	-492.779	999.000	999.000	0
20568.480	-1061.910	-494.523	-974.440	-587.707	0
20568.605	-1068.774	-496.407	-979.994	-590.604	0
20568.730	-1075.637	-498.291	-985.591	-593.475	0
20568.855	-1078.976	-499.523	-987.714	-595.665	0
20568.980	-1082.315	-500.755	-989.870	-597.830	0
20569.105	-1085.653	-501.988	-992.060	-599.970	0
20569.230	-1088.992	-503.220	-994.286	-602.084	0
20569.355	-1092.194	-502.665	-996.411	-602.385	0
20569.480	-1095.396	-502.110	-998.548	-602.668	0
20569.605	-1098.597	-501.555	-1000.697	-602.930	0
20569.730	-1101.799	-501.000	-1002.826	-603.185	0
20569.855	-1105.001	-500.446	-1004.925	-603.437	0
20569.980	-1108.193	-499.771	-1006.985	-603.566	0
20570.105	-1111.386	-499.096	-1009.013	-603.692	0
20570.230	-1114.579	-498.422	-1011.008	-603.815	0
20570.355	-1117.970	-498.300	-1013.168	-604.489	0
20570.480	-1121.361	-498.178	-1015.303	-605.156	0
20570.605	-1124.752	-498.057	-1017.413	-605.817	0
20570.730	-1128.143	-497.935	-1019.531	-606.465	0
20570.855	-1131.534	-497.813	-1021.663	-607.098	0
20570.980	-1135.749	-499.988	-1024.631	-610.013	0
20571.105	-1139.965	-502.163	-1027.650	-612.901	0
20571.230	-1144.436	-503.483	-1030.976	-614.911	0
20571.355	-1149.069	-504.261	-1034.503	-616.358	0
20571.480	-1153.636	-505.258	-1037.996	-618.006	0
20571.605	-1158.151	-506.432	-1041.471	-619.815	0
20571.730	-1162.321	-508.757	-1044.602	-622.781	0
20571.855	-1167.410	-508.013	-1048.665	-622.688	0
20571.980	-1172.554	-507.080	-1052.745	-622.426	0
20572.105	-1177.699	-506.146	-1056.775	-622.186	0
