Tag:	57950
Reference:	tu26_C_05
Coast Distance (km): 	30.0
Estimation Time Delay (days): 	0.0

CNES Day	Xg	Yg	Xs	Ys	Delay
20256.603	0.000	0.000	0.000	0.000	0
20256.728	5.367	4.583	999.000	999.000	0
20256.853	10.733	9.166	999.000	999.000	0
20256.978	16.100	13.748	999.000	999.000	0
20257.103	21.467	18.331	999.000	999.000	0
20257.228	26.833	22.914	999.000	999.000	0
20257.353	32.200	27.497	999.000	999.000	0
20257.478	37.566	32.079	999.000	999.000	0
20257.603	42.933	36.662	999.000	999.000	0
20257.728	48.300	41.245	40.417	51.761	0
20257.853	53.666	45.828	45.362	57.475	0
20257.978	59.033	50.410	50.731	63.227	0
20258.103	64.400	54.993	56.511	69.093	0
20258.228	69.766	59.576	62.681	75.152	0
20258.353	75.133	64.159	68.677	81.347	0
20258.478	80.499	68.741	74.032	87.575	0
20258.603	90.261	75.239	83.169	95.683	0
20258.728	99.645	81.684	91.187	103.393	0
20258.853	108.457	88.073	98.143	110.642	0
20258.978	117.863	94.640	105.441	117.612	0
20259.103	127.080	101.192	112.629	123.946	0
20259.228	135.880	107.682	119.980	129.184	0
20259.353	141.855	114.995	125.205	134.038	0
20259.478	147.830	122.308	131.044	137.614	0
20259.603	154.726	129.445	138.586	139.537	0
20259.728	161.286	136.159	145.822	140.350	0
20259.853	167.306	142.987	151.933	142.054	0
20259.978	172.970	149.813	157.088	144.525	0
20260.103	176.768	156.801	159.787	147.814	0
20260.228	184.190	163.942	165.529	151.795	0
20260.353	192.111	171.348	171.252	156.451	0
20260.478	200.032	178.753	176.858	161.383	0
20260.603	205.885	186.976	180.651	167.252	0
20260.728	211.672	195.339	184.874	173.067	0
20260.853	218.179	203.791	190.313	178.686	0
20260.978	225.497	212.187	197.009	183.909	0
20261.103	233.505	220.984	204.608	189.490	0
20261.228	241.251	229.733	212.082	195.229	0
20261.353	248.524	238.283	219.062	201.081	0
20261.478	255.854	247.298	225.927	207.757	0
20261.603	263.118	256.377	232.310	214.874	0
20261.728	271.547	265.054	239.538	221.853	0
20261.853	280.023	273.665	246.563	228.979	0
20261.978	287.662	280.520	252.514	234.540	0
20262.103	295.450	286.509	258.438	239.383	0
20262.228	303.092	292.151	264.073	244.009	0
20262.353	310.667	297.723	269.519	248.671	0
20262.478	318.181	303.232	274.815	253.323	0
20262.603	325.621	308.665	279.962	257.944	0
20262.728	332.926	313.960	284.951	262.464	0
20262.853	339.362	322.205	289.106	269.947	0
20262.978	345.797	330.451	293.475	277.380	0
20263.103	352.233	338.697	298.104	284.749	0
20263.228	358.668	346.943	303.006	292.058	0
20263.353	365.104	355.189	308.186	299.316	0
20263.478	371.539	363.434	313.635	306.525	0
20263.603	377.975	371.680	319.345	313.692	0
20263.728	384.410	379.926	325.315	320.838	0
20263.853	390.846	388.172	331.547	328.015	0
20263.978	397.281	396.418	338.059	335.213	0
20264.103	403.717	404.663	344.875	342.401	0
20264.228	410.152	412.909	352.008	349.567	0
20264.353	416.588	421.155	359.473	356.700	0
20264.478	423.023	429.401	367.306	363.804	0
20264.603	429.459	437.647	375.533	370.848	0
20264.728	435.894	445.892	384.183	377.779	0
20264.853	442.330	454.138	393.270	384.578	0
20264.978	448.765	462.384	402.799	391.236	0
20265.103	455.201	470.630	412.721	397.746	0
20265.228	461.636	478.876	423.017	404.111	0
20265.353	468.072	487.121	433.694	410.314	0
20265.478	474.507	495.367	444.758	416.338	0
20265.603	470.814	499.375	446.042	417.938	0
20265.728	467.121	503.383	447.327	419.429	0
20265.853	463.427	507.390	448.620	420.819	0
20265.978	459.734	511.398	449.927	422.105	0
20266.103	455.760	515.085	450.971	422.964	0
20266.228	452.191	519.235	452.441	424.183	0
20266.353	448.622	523.386	453.945	425.291	0
20266.478	448.132	531.062	458.568	429.812	0
20266.603	448.672	539.917	464.285	435.382	0
20266.728	450.364	548.072	471.009	440.239	0
20266.853	452.635	555.875	478.182	444.769	0
20266.978	455.013	563.613	485.325	449.272	0
20267.103	457.480	571.297	492.416	453.767	0
20267.228	460.037	578.925	499.366	458.264	0
20267.353	462.720	586.477	506.183	462.742	0
20267.478	466.874	593.296	514.217	466.547	0
20267.603	471.570	600.335	522.568	470.655	0
20267.728	476.115	607.028	530.551	474.469	0
20267.853	480.541	613.489	538.248	478.089	0
20267.978	485.449	619.812	546.270	481.613	0
20268.103	490.258	626.281	554.042	485.340	0
20268.228	495.253	632.681	561.819	489.062	0
20268.353	500.293	639.049	569.440	492.824	0
20268.478	505.352	645.406	576.870	496.665	0
20268.603	510.275	651.891	583.965	500.756	0
20268.728	516.805	656.941	592.427	503.558	0
20268.853	524.378	661.203	601.708	505.754	0
20268.978	528.852	667.941	607.678	510.618	0
20269.103	533.233	674.664	613.314	515.555	0
20269.228	538.486	680.722	619.597	519.904	0
20269.353	543.872	686.675	625.868	524.197	0
20269.478	549.354	692.551	632.096	528.450	0
20269.603	555.501	698.784	638.854	533.090	0
20269.728	561.920	704.905	645.771	537.578	0
20269.853	565.920	711.109	650.173	542.092	0
20269.978	570.329	717.359	654.911	546.627	0
20270.103	577.295	723.890	662.179	551.428	0
20270.228	584.260	730.421	669.417	556.229	0
20270.353	591.225	736.953	676.595	561.037	0
20270.478	600.203	741.471	685.699	563.843	0
20270.603	609.229	745.942	694.774	566.690	0
20270.728	617.876	750.791	703.388	570.148	0
20270.853	626.337	755.826	711.727	574.042	0
20270.978	634.781	760.878	719.934	578.194	0
20271.103	643.400	764.980	728.182	581.623	0
20271.228	652.103	769.070	736.434	585.327	0
20271.353	660.928	773.145	744.725	589.289	0
20271.478	670.016	777.188	753.195	593.480	0
20271.603	679.189	781.219	761.660	597.917	0
20271.728	686.670	784.115	768.389	601.566	0
20271.853	694.174	786.196	775.167	604.709	0
20271.978	701.683	788.098	781.989	607.987	0
20272.103	709.196	789.870	788.858	611.448	0
20272.228	716.713	791.505	795.778	615.090	0
20272.353	724.236	792.907	802.789	618.865	0
20272.478	731.795	793.071	809.919	621.779	0
20272.603	737.415	791.133	815.200	622.979	0
20272.728	743.827	789.779	821.358	625.096	0
20272.853	750.369	788.521	827.737	627.672	0
20272.978	757.107	787.408	834.411	630.704	0
20273.103	763.294	785.888	840.634	633.589	0
20273.228	769.193	784.156	846.664	636.506	0
20273.353	772.915	783.647	850.604	640.878	0
20273.478	775.554	783.746	853.522	646.004	0
20273.603	780.906	782.322	859.207	649.708	0
20273.728	783.976	782.179	862.666	654.893	0
20273.853	785.459	782.929	864.567	661.071	0
20273.978	786.941	783.678	866.479	667.231	0
20274.103	788.423	784.427	868.405	673.367	0
20274.228	795.550	785.586	875.992	679.883	0
20274.353	800.364	786.578	881.329	686.022	0
20274.478	801.221	787.278	882.762	691.723	0
20274.603	808.857	788.467	890.990	697.886	0
20274.728	816.529	789.656	899.359	703.846	0
20274.853	824.186	790.843	907.844	709.606	0
20274.978	831.829	792.028	916.463	715.006	0
20275.103	839.456	793.212	925.227	719.844	0
20275.228	847.043	794.390	934.133	724.099	0
20275.353	853.954	795.484	942.554	727.692	0
20275.478	856.849	796.098	947.158	730.276	0
20275.603	859.745	796.712	951.879	732.659	0
20275.728	862.641	797.327	956.314	734.800	0
20275.853	865.536	797.941	960.372	736.683	0
20275.978	862.701	797.875	958.321	737.623	0
20276.103	866.442	798.698	962.382	739.713	0
20276.228	869.172	799.376	965.089	741.314	0
20276.353	868.807	795.134	964.340	737.729	0
20276.478	870.999	795.633	965.526	738.946	0
20276.603	873.191	796.131	966.353	739.951	0
20276.728	875.383	796.629	967.478	740.466	0
20276.853	877.575	797.127	969.028	740.450	0
20276.978	884.458	810.270	975.692	752.578	0
20277.103	891.312	823.709	983.393	764.078	0
20277.228	894.390	831.654	988.334	769.263	0
20277.353	897.468	839.599	993.960	774.081	0
20277.478	899.754	846.219	999.408	777.394	0
20277.603	902.753	853.950	1006.085	781.765	0
20277.728	910.093	860.248	1017.264	784.824	0
20277.853	918.056	867.217	1028.931	788.651	0
20277.978	923.147	874.809	1037.600	793.264	0
20278.103	926.580	881.949	1044.565	797.691	0
20278.228	929.289	889.154	1050.793	802.475	0
20278.353	931.998	896.359	1056.964	807.547	0
20278.478	942.476	897.534	1070.683	806.825	0
20278.603	952.187	898.649	1083.340	806.324	0
20278.728	961.195	899.711	1095.070	805.962	0
20278.853	969.369	900.708	1105.783	805.703	0
20278.978	972.493	904.870	1111.296	808.767	0
20279.103	973.163	911.770	1114.291	814.761	0
20279.228	977.129	916.161	1120.573	818.458	0
20279.353	980.840	920.380	1126.533	822.199	0
20279.478	983.557	924.830	1131.450	826.377	0
20279.603	985.964	929.173	1135.987	830.598	0
20279.728	988.780	933.657	1140.805	835.079	0
20279.853	993.370	938.749	1147.261	840.316	0
20279.978	1000.626	940.484	1156.216	842.428	0
20280.103	1007.883	942.219	1165.039	844.823	0
20280.228	1015.140	943.954	1173.723	847.478	0
20280.353	1022.397	945.689	1182.215	850.257	0
20280.478	1029.654	947.424	1190.527	853.152	0
20280.603	1036.911	949.159	1198.665	856.165	0
20280.728	1044.584	950.370	1207.062	858.764	0
20280.853	1054.391	949.902	1217.465	859.750	0
20280.978	1063.650	950.409	1227.348	861.506	0
20281.103	1072.909	950.917	1237.259	863.080	0
20281.228	1082.168	951.424	1247.197	864.472	0
20281.353	1091.426	951.932	1257.167	865.712	0
20281.478	1100.685	952.439	999.000	999.000	0
20281.603	1109.944	952.947	999.000	999.000	0
20281.728	1114.740	950.432	999.000	999.000	0
20281.853	1118.834	948.233	999.000	999.000	0
20281.978	1122.419	946.262	999.000	999.000	0
20282.103	1127.483	944.898	999.000	999.000	0
20282.228	1134.739	943.925	999.000	999.000	0
20282.353	1141.032	942.721	999.000	999.000	0
20282.478	1147.141	941.459	999.000	999.000	0
20282.603	1153.087	940.173	999.000	999.000	0
20282.728	1158.470	939.532	999.000	999.000	0
20282.853	1165.134	938.634	999.000	999.000	0
20282.978	1173.670	937.361	999.000	999.000	0
20283.103	1178.141	938.835	1335.815	894.843	0
20283.228	1182.611	940.309	1341.564	896.802	0
20283.353	1187.081	941.783	1347.442	898.637	0
20283.478	1191.552	943.257	1353.441	900.345	0
20283.603	1196.022	944.731	1359.557	901.925	0
20283.728	1200.493	946.205	1365.799	903.418	0
20283.853	1204.391	948.066	1371.594	905.219	0
20283.978	1208.290	949.926	1377.504	906.946	0
20284.103	1212.188	951.787	1383.523	908.610	0
20284.228	1216.087	953.647	1389.645	910.221	0
20284.353	1219.985	955.507	1395.864	911.790	0
20284.478	1223.884	957.368	1402.176	913.329	0
20284.603	1227.782	959.228	1408.574	914.850	0
20284.728	1237.961	960.654	1421.202	915.989	0
20284.853	1248.139	962.079	1433.506	917.160	0
20284.978	1258.318	963.505	1445.473	918.351	0
20285.103	1268.496	964.931	1457.136	919.564	0
20285.228	1278.675	966.356	1468.539	920.745	0
20285.353	1288.854	967.782	1479.739	921.705	0
20285.478	1275.380	977.645	1467.095	930.889	0
20285.603	1283.179	980.004	1475.720	933.015	0
20285.728	1290.978	982.363	1484.165	934.995	0
20285.853	1298.777	984.721	1492.435	936.825	0
20285.978	1306.576	987.080	1500.535	938.504	0
20286.103	1314.374	989.439	1508.472	940.095	0
20286.228	1322.173	991.797	1516.256	941.679	0
20286.353	1329.972	994.156	1523.888	943.254	0
20286.478	1337.771	996.515	1531.379	944.819	0
20286.603	1345.570	998.874	1538.764	946.374	0
20286.728	1353.368	1001.232	1546.062	947.877	0
20286.853	1361.167	1003.591	1553.285	949.292	0
20286.978	1368.966	1005.950	1560.440	950.608	0
20287.103	1376.765	1008.309	1567.533	951.815	0
20287.228	1384.563	1010.667	1574.570	952.900	0
20287.353	1392.362	1013.026	1581.613	953.876	0
20287.478	1400.161	1015.385	1588.658	954.738	0
20287.603	1407.960	1017.743	999.000	999.000	0
20287.728	1415.759	1020.102	999.000	999.000	0
20287.853	1423.557	1022.461	999.000	999.000	0
20287.978	1431.356	1024.820	999.000	999.000	0
