Tag:	59393
Reference:	tu27_B_05
Coast Distance (km): 	30.0
Estimation Time Delay (days): 	0.0

CNES Day	Xg	Yg	Xs	Ys	Delay
20264.091	0.000	0.000	0.000	0.000	0
20264.216	-0.022	5.308	999.000	999.000	0
20264.341	-0.044	10.616	999.000	999.000	0
20264.466	-0.066	15.924	999.000	999.000	0
20264.591	-0.088	21.232	999.000	999.000	0
20264.716	-0.110	26.540	999.000	999.000	0
20264.841	7.446	31.338	999.000	999.000	0
20264.966	15.514	36.252	999.000	999.000	0
20265.091	23.582	41.166	61.580	41.433	0
20265.216	31.650	46.080	68.986	46.148	0
20265.341	39.036	50.839	75.389	50.255	0
20265.466	46.422	55.598	81.560	54.015	0
20265.591	53.809	60.357	87.654	57.569	0
20265.716	61.195	65.116	93.674	60.883	0
20265.841	68.581	69.875	99.613	63.902	0
20265.966	75.967	74.634	105.476	66.575	0
20266.091	83.354	79.393	111.278	68.871	0
20266.216	90.740	84.153	117.161	70.893	0
20266.341	98.126	88.912	123.110	72.555	0
20266.466	105.215	93.205	128.950	73.380	0
20266.591	112.304	97.499	134.986	73.842	0
20266.716	119.241	102.057	141.089	74.183	0
20266.841	126.156	106.653	147.546	74.274	0
20266.966	133.071	111.249	154.339	74.024	0
20267.091	139.986	115.845	161.427	73.373	0
20267.216	146.901	120.441	168.776	72.258	0
20267.341	153.815	125.037	176.338	70.622	0
20267.466	159.718	131.388	183.120	70.341	0
20267.591	165.620	137.739	190.113	69.787	0
20267.716	172.829	147.578	198.579	72.430	0
20267.841	180.227	157.919	207.358	75.224	0
20267.966	187.157	167.010	215.658	76.396	0
20268.091	194.012	175.903	223.688	77.248	0
20268.216	200.749	184.480	231.384	77.914	0
20268.341	207.767	193.809	239.139	79.386	0
20268.466	214.864	203.346	246.713	81.058	0
20268.591	221.960	212.884	254.167	82.662	0
20268.716	233.388	216.223	265.789	78.214	0
20268.841	244.816	219.563	277.196	74.312	0
20268.966	256.244	222.903	288.362	71.042	0
20269.091	267.672	226.243	299.250	68.442	0
20269.216	279.100	229.583	309.820	66.850	0
20269.341	290.528	232.923	320.074	66.415	0
20269.466	301.956	236.263	330.029	67.112	0
20269.591	313.908	238.854	340.247	68.169	0
20269.716	325.658	240.508	350.082	69.327	0
20269.841	337.408	242.162	359.775	71.447	0
20269.966	349.159	243.816	369.315	74.485	0
20270.091	360.909	245.471	378.663	78.271	0
20270.216	372.659	247.125	387.832	82.802	0
20270.341	384.409	248.779	396.829	88.066	0
20270.466	396.160	250.433	405.613	93.839	0
20270.591	406.006	245.422	412.306	93.447	0
20270.716	415.643	240.502	418.580	93.468	0
20270.841	425.193	235.620	424.586	93.727	0
20270.966	434.681	230.764	430.348	94.183	0
20271.091	442.094	227.561	433.858	96.465	0
20271.216	449.287	224.545	437.035	99.057	0
20271.341	457.548	222.242	441.188	102.391	0
20271.466	463.992	222.218	443.447	107.905	0
20271.591	469.853	223.274	445.069	114.409	0
20271.716	475.742	224.563	446.763	121.033	0
20271.841	481.648	226.084	448.560	127.756	0
20271.966	490.295	228.504	453.204	135.231	0
20272.091	498.831	231.639	457.926	142.989	0
20272.216	509.055	235.597	464.574	151.081	0
20272.341	518.526	239.519	470.797	158.508	0
20272.466	528.827	243.688	478.205	165.577	0
20272.591	541.946	248.376	488.788	172.497	0
20272.716	555.076	252.902	499.713	178.509	0
20272.841	568.219	257.185	510.952	183.593	0
20272.966	581.390	260.812	522.479	187.550	0
20273.091	590.109	262.645	529.753	189.309	0
20273.216	598.828	264.478	537.084	190.834	0
20273.341	607.547	266.312	544.476	192.190	0
20273.466	616.266	268.145	551.909	193.444	0
20273.591	624.985	269.979	559.363	194.617	0
20273.716	633.703	271.812	566.881	195.681	0
20273.841	633.967	273.321	566.012	196.332	0
20273.966	640.966	275.096	571.947	197.267	0
20274.091	648.808	276.946	578.776	198.261	0
20274.216	656.649	278.796	585.650	199.235	0
20274.341	664.491	280.645	592.562	200.187	0
20274.466	672.332	282.495	599.510	201.120	0
20274.591	680.173	284.345	606.506	202.055	0
20274.716	688.015	286.195	613.523	202.975	0
20274.841	698.489	289.683	623.179	205.503	0
20274.966	706.606	293.844	630.513	208.677	0
20275.091	713.356	298.413	636.525	212.238	0
20275.216	719.472	303.110	641.945	215.999	0
20275.341	725.310	307.860	647.110	219.886	0
20275.466	730.909	312.654	652.018	223.901	0
20275.591	736.188	317.505	656.535	228.081	0
20275.716	740.791	322.473	660.325	232.478	0
20275.841	745.235	327.545	663.919	237.055	0
20275.966	750.370	332.791	668.178	241.869	0
20276.091	758.632	335.950	675.534	244.667	0
20276.216	766.894	339.108	682.822	247.566	0
20276.341	775.156	342.266	690.039	250.553	0
20276.466	783.418	345.425	697.183	253.618	0
20276.591	791.680	348.583	704.260	256.729	0
20276.716	799.942	351.742	711.247	259.886	0
20276.841	808.204	354.900	718.130	263.097	0
20276.966	816.466	358.059	724.912	266.335	0
20277.091	824.728	361.217	731.598	269.575	0
20277.216	832.990	364.376	738.231	272.733	0
20277.341	841.252	367.534	744.820	275.791	0
20277.466	849.514	370.693	751.366	278.735	0
20277.591	857.776	373.851	757.873	281.556	0
20277.716	866.038	377.010	764.358	284.251	0
20277.841	874.300	380.168	770.846	286.828	0
20277.966	882.562	383.326	777.352	289.284	0
20278.091	890.824	386.485	783.922	291.614	0
20278.216	899.086	389.643	790.552	293.813	0
20278.341	907.348	392.802	797.261	295.877	0
20278.466	915.610	395.960	804.045	297.808	0
20278.591	921.935	403.471	808.963	303.957	0
20278.716	928.442	408.295	814.146	307.281	0
20278.841	934.948	413.119	819.387	310.477	0
20278.966	941.455	417.943	824.676	313.597	0
20279.091	947.961	422.768	830.028	316.653	0
20279.216	954.468	427.592	835.471	319.665	0
20279.341	960.974	432.416	840.992	322.630	0
20279.466	968.680	427.945	847.777	316.249	0
20279.591	975.386	431.222	853.522	317.636	0
20279.716	982.235	434.218	859.435	318.846	0
20279.841	989.083	437.214	865.337	320.175	0
20279.966	995.932	440.210	871.212	321.622	0
20280.091	1002.781	443.205	877.045	323.193	0
20280.216	1009.629	446.201	882.819	324.890	0
20280.341	1016.478	449.197	888.537	326.885	0
20280.466	1022.178	455.013	893.035	332.007	0
20280.591	1027.565	460.927	897.122	337.501	0
20280.716	1032.787	466.892	901.036	343.260	0
20280.841	1037.987	472.402	904.947	348.720	0
20280.966	1043.377	476.742	909.059	353.143	0
20281.091	1048.794	480.856	913.229	357.483	0
20281.216	1054.227	484.793	917.473	361.774	0
20281.341	1059.670	488.497	921.809	365.940	0
20281.466	1065.120	490.386	926.259	368.374	0
20281.591	1070.723	492.148	931.013	370.768	0
20281.716	1076.529	493.742	936.104	373.143	0
20281.841	1083.040	494.438	942.024	374.802	0
20281.966	1091.360	491.467	949.933	372.938	0
20282.091	1098.293	491.140	956.707	373.964	0
20282.216	1105.420	491.092	963.885	375.431	0
20282.341	1112.507	490.351	971.238	376.359	0
20282.466	1119.600	489.603	978.825	377.447	0
20282.591	1126.700	488.845	986.644	378.610	0
20282.716	1133.850	488.033	994.648	379.774	0
20282.841	1142.868	484.883	1004.623	378.647	0
20282.966	1147.277	487.483	1010.102	383.343	0
20283.091	1151.510	490.312	1015.457	388.242	0
20283.216	1155.680	493.224	1020.778	393.178	0
20283.341	1159.808	496.190	1026.032	398.059	0
20283.466	1164.924	497.323	1032.247	401.008	0
20283.591	1169.810	498.788	1038.228	404.207	0
20283.716	1174.533	500.587	1044.032	407.666	0
20283.841	1179.121	502.710	1049.683	411.379	0
20283.966	1183.617	504.812	1055.216	415.002	0
20284.091	1188.010	507.102	1060.621	418.747	0
20284.216	1193.351	507.684	1066.943	420.724	0
20284.341	1198.658	508.313	1073.172	422.656	0
20284.466	1205.271	509.111	1080.648	424.667	0
20284.591	1212.037	509.903	1088.211	426.566	0
20284.716	1218.546	510.659	1095.498	428.309	0
20284.841	1223.844	512.027	1101.567	430.552	0
20284.966	1228.938	513.482	1107.418	432.796	0
20285.091	1234.282	514.869	1113.474	434.911	0
20285.216	1239.745	516.232	1119.585	436.952	0
20285.341	1245.652	517.538	1126.074	438.894	0
20285.466	1252.151	518.394	1133.079	440.348	0
20285.591	1255.626	520.248	1136.977	442.764	0
20285.716	1254.950	523.478	1136.660	446.556	0
20285.841	1260.794	524.928	1142.837	448.608	0
20285.966	1266.639	526.377	1148.919	450.651	0
20286.091	1272.483	527.826	1154.882	452.695	0
20286.216	1278.327	529.275	1160.714	454.743	0
20286.341	1284.171	530.725	1166.421	456.796	0
20286.466	1290.329	532.446	1172.317	459.128	0
20286.591	1297.162	534.015	1178.761	461.317	0
20286.716	1303.349	535.313	1184.426	463.241	0
20286.841	1309.933	536.778	1190.380	465.341	0
20286.966	1316.518	538.242	1196.228	467.449	0
20287.091	1323.103	539.707	1201.975	469.559	0
20287.216	1329.688	541.171	1207.625	471.666	0
20287.341	1336.272	542.635	1213.183	473.763	0
20287.466	1344.070	545.203	1219.867	476.948	0
20287.591	1350.934	546.616	1225.574	478.934	0
20287.716	1357.296	547.684	1230.741	480.525	0
20287.841	1363.400	548.764	1235.615	482.078	0
20287.966	1369.554	549.858	1240.510	483.591	0
20288.091	1375.714	550.953	1245.386	485.047	0
20288.216	1381.899	552.067	1250.283	486.438	0
20288.341	1387.898	553.066	1255.031	487.591	0
20288.466	1393.423	553.726	1259.343	488.281	0
20288.591	1398.669	554.245	1263.411	488.718	0
20288.716	1405.540	557.164	1269.150	491.437	0
20288.841	1412.410	560.084	1274.962	493.987	0
20288.966	1419.354	562.876	1280.920	496.241	0
20289.091	1426.189	565.696	1286.821	498.360	0
20289.216	1432.124	569.608	1291.893	501.417	0
20289.341	1438.134	573.337	1297.125	504.166	0
20289.466	1444.159	576.382	1302.454	506.114	0
20289.591	1451.370	579.214	1309.041	507.744	0
20289.716	1458.263	582.489	1315.407	509.760	0
20289.841	1465.157	585.764	1321.886	511.766	0
20289.966	1469.667	589.338	1326.090	514.051	0
20290.091	1474.231	592.732	1330.451	516.134	0
20290.216	1479.368	596.646	1335.487	518.709	0
20290.341	1484.790	600.817	1340.910	521.499	0
20290.466	1490.394	605.134	1346.653	524.389	0
20290.591	1496.196	609.581	1352.799	527.425	0
20290.716	1502.365	614.234	1359.451	530.687	0
20290.841	1508.857	619.200	1366.533	534.286	0
20290.966	1513.437	622.414	1371.803	536.159	0
20291.091	1518.789	626.218	1377.885	538.646	0
20291.216	1524.287	630.315	1384.160	541.456	0
20291.341	1529.849	634.652	1390.526	544.558	0
20291.466	1535.510	637.775	1396.985	546.542	0
20291.591	1541.275	640.603	1403.514	548.347	0
20291.716	1546.294	642.109	1409.222	548.939	0
20291.841	1551.221	643.821	1414.738	549.814	0
20291.966	1556.134	646.371	1420.149	551.605	0
20292.091	1561.138	648.161	1425.574	552.715	0
20292.216	1566.985	648.383	1431.756	552.341	0
20292.341	1572.969	648.688	1437.945	552.147	0
20292.466	1579.064	649.063	1444.118	552.120	0
20292.591	1585.289	649.528	1450.301	552.279	0
20292.716	1591.913	649.992	1456.838	552.600	0
20292.841	1599.143	649.802	1463.959	552.463	0
20292.966	1606.459	649.798	1471.125	552.725	0
20293.091	1613.782	649.789	1478.252	553.210	0
20293.216	1617.687	650.426	1481.920	554.569	0
20293.341	1623.046	650.675	1487.040	555.697	0
20293.466	1629.861	650.358	1493.599	556.444	0
20293.591	1636.688	650.145	1500.146	557.506	0
20293.716	1643.340	650.014	1506.506	558.796	0
20293.841	1649.036	649.716	1511.909	560.011	0
20293.966	1654.617	649.209	1517.202	561.096	0
20294.091	1660.509	648.568	1522.813	562.117	0
20294.216	1666.597	647.946	1528.629	563.231	0
20294.341	1672.864	647.327	1534.631	564.420	0
20294.466	1682.215	645.079	1543.741	564.020	0
20294.591	1691.404	642.906	1552.748	563.662	0
20294.716	1700.563	640.773	1561.724	563.304	0
20294.841	1707.828	639.860	1568.787	564.123	0
20294.966	1714.431	639.344	1575.167	565.289	0
20295.091	1721.001	639.556	1581.551	567.047	0
20295.216	1726.696	640.007	1587.100	568.898	0
20295.341	1732.508	640.404	1592.798	570.558	0
20295.466	1737.780	641.545	1597.993	572.821	0
20295.591	1743.015	642.728	1603.181	574.980	0
20295.716	1748.952	643.354	1609.115	576.459	0
20295.841	1752.552	645.981	1612.798	579.792	0
20295.966	1754.635	650.070	1615.012	584.446	0
20296.091	1757.240	653.795	1617.764	588.606	0
20296.216	1760.236	657.259	1620.938	592.369	0
20296.341	1763.751	660.396	1624.668	595.666	0
20296.466	1768.875	662.556	1630.060	597.840	0
20296.591	1774.256	664.371	1635.798	599.502	0
20296.716	1779.713	665.694	1641.714	600.520	0
20296.841	1785.570	664.708	1648.132	599.097	0
20296.966	1791.426	663.722	1654.635	597.567	0
20297.091	1797.070	662.908	1660.987	596.100	0
20297.216	1802.691	662.500	1667.369	594.937	0
20297.341	1810.208	662.269	1675.696	593.851	0
20297.466	1820.361	662.380	1686.719	592.968	0
20297.591	1827.886	661.676	1695.172	591.105	0
20297.716	1834.213	661.392	1702.442	589.601	0
20297.841	1839.831	661.006	1709.052	587.916	0
20297.966	1845.449	660.621	1715.719	586.158	0
20298.091	1862.271	661.924	1733.649	586.020	0
20298.216	1879.093	663.228	1751.589	585.925	0
20298.341	1880.032	663.767	1753.701	585.358	0
20298.466	1880.971	664.306	1755.889	584.774	0
20298.591	1881.910	664.845	1758.155	584.171	0
20298.716	1881.269	665.307	1758.832	583.495	0
20298.841	1885.910	666.025	1764.750	583.059	0
20298.966	1886.949	666.568	1767.021	582.537	0
20299.091	1885.941	667.014	1767.204	581.934	0
20299.216	1885.185	667.460	1767.599	581.307	0
20299.341	1885.472	667.912	1768.999	580.663	0
20299.466	1885.760	668.363	1770.359	580.018	0
20299.591	1886.047	668.814	1771.680	579.373	0
20299.716	1890.788	669.286	1777.466	578.792	0
20299.841	1895.516	669.407	1783.269	578.013	0
20299.966	1900.238	669.316	1789.107	577.173	0
20300.091	1904.958	669.188	1794.992	576.437	0
20300.216	1908.235	669.286	1799.487	576.072	0
20300.341	1910.171	669.671	1802.685	576.105	0
20300.466	1913.592	670.122	1807.409	576.289	0
20300.591	1915.243	670.736	1810.410	576.749	0
20300.716	1914.795	671.805	1811.335	577.718	0
20300.841	1914.183	673.039	1812.103	578.854	0
20300.966	1913.401	674.425	1812.699	580.135	0
20301.091	1912.336	676.032	1813.009	581.629	0
20301.216	1910.167	678.424	1812.207	583.895	0
20301.341	1906.702	681.937	1810.089	587.244	0
20301.466	1910.315	685.480	1815.010	590.560	0
20301.591	1913.928	689.022	1819.921	593.930	0
20301.716	1917.541	692.564	1824.843	597.349	0
20301.841	1921.238	695.878	1829.874	600.588	0
20301.966	1924.569	699.367	1834.566	604.051	0
20302.091	1928.108	702.934	1839.493	607.633	0
20302.216	1931.823	706.566	1844.626	611.322	0
20302.341	1934.941	709.909	1849.194	614.763	0
20302.466	1937.892	713.285	1853.613	618.261	0
20302.591	1940.844	716.660	1858.047	621.781	0
20302.716	1944.645	719.852	1863.310	625.149	0
20302.841	1948.351	723.178	1868.448	628.697	0
20302.966	1951.701	726.567	1873.205	632.349	0
20303.091	1954.811	730.056	1877.696	636.138	0
20303.216	1957.785	733.613	1882.027	640.029	0
20303.341	1960.665	737.215	1886.242	643.995	0
20303.466	1963.442	740.864	1890.335	648.037	0
20303.591	1966.108	744.651	1894.302	652.245	0
20303.716	1968.548	748.643	1897.979	656.675	0
20303.841	1970.796	752.791	1901.403	661.270	0
20303.966	1973.518	756.897	1905.225	665.823	0
20304.091	1976.601	760.964	1909.328	670.342	0
20304.216	1979.543	765.044	1913.199	674.884	0
20304.341	1982.516	769.121	1917.007	679.439	0
20304.466	1985.534	772.219	1920.756	683.035	0
20304.591	1988.704	775.633	1924.552	686.969	0
20304.716	1991.889	779.203	1928.254	691.091	0
20304.841	1995.108	782.436	1931.872	694.915	0
20304.966	1998.423	785.224	1935.466	698.343	0
20305.091	2001.804	787.361	1938.998	701.179	0
20305.216	2005.081	789.366	1942.290	703.941	0
20305.341	2008.165	791.125	1945.245	706.519	0
20305.466	2012.079	791.910	1948.881	708.164	0
20305.591	2015.994	792.694	1952.357	709.848	0
20305.716	2019.909	793.478	1955.835	711.532	0
20305.841	2023.823	794.262	1959.380	713.197	0
20305.966	2027.738	795.047	1962.997	714.843	0
20306.091	2031.653	795.831	1966.689	716.469	0
20306.216	2035.567	796.615	1970.461	718.074	0
20306.341	2039.482	797.400	1974.316	719.657	0
20306.466	2044.744	798.987	1979.605	722.022	0
20306.591	2050.006	800.574	1984.978	724.362	0
20306.716	2055.267	802.160	1990.402	726.686	0
20306.841	2060.529	803.747	1995.872	728.997	0
20306.966	2065.791	805.334	2001.393	731.295	0
20307.091	2071.053	806.921	2006.970	733.579	0
20307.216	2076.314	808.508	2012.606	735.849	0
20307.341	2081.576	810.095	2018.305	738.105	0
20307.466	2086.568	812.636	2023.798	741.301	0
20307.591	2091.560	815.177	2029.349	744.488	0
20307.716	2096.410	817.657	2034.699	747.610	0
20307.841	2101.441	820.214	2040.152	750.799	0
20307.966	2106.508	822.787	2045.583	753.985	0
20308.091	2111.624	825.381	2051.012	757.172	0
20308.216	2117.097	828.129	2056.756	760.490	0
20308.341	2121.383	830.366	2061.284	763.271	0
20308.466	2125.709	833.065	2065.832	766.494	0
20308.591	2130.034	835.764	2070.373	769.693	0
20308.716	2134.692	839.082	2075.287	773.497	0
20308.841	2139.350	842.400	2080.276	777.285	0
20308.966	2144.008	845.718	2085.341	781.056	0
20309.091	2148.665	849.036	2090.487	784.808	0
20309.216	2151.667	852.139	2094.062	788.326	0
20309.341	2155.139	855.303	2098.184	791.892	0
20309.466	2160.170	858.669	2103.952	795.660	0
20309.591	2162.715	861.714	2107.324	799.113	0
20309.716	2165.067	864.733	2110.596	802.551	0
20309.841	2167.419	867.752	2113.966	806.001	0
20309.966	2169.771	870.772	2117.431	809.465	0
20310.091	2172.124	873.791	2120.988	812.945	0
20310.216	2173.899	877.251	2124.058	816.885	0
20310.341	2175.674	880.711	2127.227	820.845	0
20310.466	2177.449	884.170	2130.494	824.827	0
20310.591	2179.147	887.689	2133.777	828.894	0
20310.716	2180.845	891.208	2137.123	832.961	0
20310.841	2182.543	894.727	2140.511	837.014	0
20310.966	2184.025	898.026	2143.720	840.834	0
20311.091	2185.883	901.708	2147.341	845.022	0
20311.216	2187.605	905.251	2150.865	849.061	0
20311.341	2189.327	908.794	2154.428	853.092	0
20311.466	2190.638	911.920	2157.618	856.697	0
20311.591	2191.756	914.851	2160.646	860.091	0
20311.716	2192.874	917.782	2163.694	863.487	0
20311.841	2193.992	920.713	2166.760	866.892	0
20311.966	2196.680	919.789	2171.414	866.452	0
20312.091	2198.730	920.432	2175.379	867.572	0
20312.216	2200.595	921.529	2179.134	869.146	0
20312.341	2203.285	922.711	2183.700	870.806	0
20312.466	2206.159	923.646	2188.434	872.218	0
20312.591	2209.029	924.173	2193.144	873.218	0
20312.716	2211.647	924.855	2197.587	874.361	0
20312.841	2209.577	923.647	2197.329	873.599	0
20312.966	2215.437	925.257	2204.980	875.654	0
20313.091	2221.206	927.371	2212.533	878.187	0
20313.216	2226.888	929.714	2219.985	880.924	0
20313.341	2232.507	932.222	2227.364	883.801	0
20313.466	2238.066	934.892	2234.664	886.809	0
20313.591	2241.213	936.807	2239.536	889.035	0
20313.716	2244.505	938.685	2244.542	891.203	0
20313.841	2248.249	940.689	2249.989	893.472	0
20313.966	2251.777	942.811	2255.208	895.835	0
20314.091	2254.966	944.972	2260.074	898.216	0
20314.216	2258.132	947.092	2264.905	900.538	0
20314.341	2261.093	948.832	2269.514	902.463	0
20314.466	2263.822	950.147	2273.877	903.945	0
20314.591	2267.700	951.705	2279.370	905.652	0
20314.716	2271.663	953.282	2284.921	907.362	0
20314.841	2276.004	954.922	2290.818	909.121	0
20314.966	2280.371	956.564	2296.707	910.870	0
20315.091	2284.718	958.204	2302.541	912.607	0
20315.216	2289.060	959.844	2308.334	914.334	0
20315.341	2293.391	961.483	2314.077	916.052	0
20315.466	2297.616	963.114	2319.663	917.757	0
20315.591	2301.438	964.716	2324.792	919.429	0
20315.716	2306.948	966.442	2331.558	921.244	0
20315.841	2310.244	966.723	2336.051	921.654	0
20315.966	2312.343	966.224	2339.324	921.308	0
20316.091	2315.328	966.303	2343.472	921.557	0
20316.216	2318.355	966.409	2347.643	921.855	0
20316.341	2325.622	966.257	2356.033	921.922	0
20316.466	2330.696	966.349	2362.190	922.272	0
20316.591	2334.313	966.621	2366.861	922.838	0
20316.716	2336.162	966.565	2369.740	923.091	0
20316.841	2333.953	966.584	2368.548	923.423	0
20316.966	2344.575	966.344	2380.197	923.483	0
20317.091	2355.199	966.115	2391.804	923.601	0
20317.216	2365.823	965.895	2403.381	923.786	0
20317.341	2372.057	965.333	2410.538	923.690	0
20317.466	2378.291	964.771	2417.681	923.629	0
20317.591	2384.526	964.209	2424.815	923.603	0
20317.716	2390.760	963.648	2431.920	923.610	0
20317.841	2381.959	961.599	2423.952	922.161	0
20317.966	2384.938	960.715	2427.754	921.836	0
20318.091	2387.931	959.854	2431.538	921.549	0
20318.216	2391.178	959.317	2435.547	921.601	0
20318.341	2394.084	958.335	2439.184	921.225	0
20318.466	2396.990	957.354	2442.796	920.861	0
20318.591	2399.896	956.372	2446.383	920.508	0
20318.716	2402.702	955.362	2449.874	920.131	0
20318.841	2404.102	953.962	2451.975	919.361	0
20318.966	2405.502	952.562	2454.098	918.583	0
