Tag:	49806
Reference:	tu22_9432_05
Coast Distance (km): 	30.0
Estimation Time Delay (days): 	0.0

CNES Day	Xg	Yg	Xs	Ys	Delay
20295.967	0.000	0.000	0.000	0.000	0
20296.092	-0.289	0.178	999.000	999.000	0
20296.217	-0.578	0.356	999.000	999.000	0
20296.342	-0.866	0.533	999.000	999.000	0
20296.467	-1.155	0.711	999.000	999.000	0
20296.592	-1.444	0.889	999.000	999.000	0
20296.717	0.116	6.847	999.000	999.000	0
20296.842	1.677	12.804	999.000	999.000	0
20296.967	3.237	18.762	999.000	999.000	0
20297.092	4.797	24.720	999.000	999.000	0
20297.217	6.357	30.678	999.000	999.000	0
20297.342	7.918	36.636	999.000	999.000	0
20297.467	9.478	42.594	999.000	999.000	0
20297.592	11.038	48.551	32.139	74.691	0
20297.717	12.599	54.509	34.519	80.273	0
20297.842	14.159	60.467	36.822	85.699	0
20297.967	15.719	66.425	39.174	91.051	0
20298.092	14.152	76.525	38.452	100.485	0
20298.217	12.584	86.625	37.750	109.898	0
20298.342	12.325	96.047	38.376	118.631	0
20298.467	11.956	105.525	39.150	127.284	0
20298.592	11.306	115.150	40.095	135.833	0
20298.717	10.066	125.080	40.867	144.488	0
20298.842	9.347	134.879	42.555	152.830	0
20298.967	8.629	144.677	44.807	161.024	0
20299.092	9.194	152.208	48.976	166.822	0
20299.217	8.899	159.764	52.780	172.595	0
20299.342	8.329	167.328	56.784	178.333	0
20299.467	7.570	174.898	61.045	184.069	0
20299.592	4.959	181.461	63.855	188.852	0
20299.717	2.062	187.748	66.713	193.350	0
20299.842	0.290	194.484	71.033	198.260	0
20299.967	-3.455	200.802	73.748	202.730	0
20300.092	-7.385	207.035	76.639	207.023	0
20300.217	-11.342	213.235	79.611	211.260	0
20300.342	-16.030	218.491	81.887	214.535	0
20300.467	-21.054	223.313	83.857	217.308	0
20300.592	-23.882	232.621	88.065	224.455	0
20300.717	-26.709	241.928	92.490	231.524	0
20300.842	-29.537	251.236	97.024	238.554	0
20300.967	-32.365	260.544	101.453	245.613	0
20301.092	-35.193	269.851	105.790	252.668	0
20301.217	-38.021	279.159	110.044	259.699	0
20301.342	-40.849	288.466	114.058	266.683	0
20301.467	-43.677	297.774	117.610	273.620	0
20301.592	-46.505	307.082	120.681	280.503	0
20301.717	-49.333	316.389	123.256	287.355	0
20301.842	-52.161	325.697	125.326	294.171	0
20301.967	-54.989	335.005	126.873	300.938	0
20302.092	-57.817	344.312	127.907	307.665	0
20302.217	-60.645	353.620	128.428	314.351	0
20302.342	-63.473	362.928	128.383	321.013	0
20302.467	-66.301	372.235	127.744	327.670	0
20302.592	-69.129	381.543	126.520	334.315	0
20302.717	-71.957	390.851	124.750	340.921	0
20302.842	-74.785	400.158	122.425	347.525	0
20302.967	-77.613	409.466	119.550	354.144	0
20303.092	-80.441	418.774	116.149	360.771	0
20303.217	-83.269	428.081	112.228	367.395	0
20303.342	-86.097	437.389	107.819	374.036	0
20303.467	-80.576	448.430	111.305	382.404	0
20303.592	-75.056	459.471	114.180	391.234	0
20303.717	-69.535	470.512	116.376	400.657	0
20303.842	-63.756	475.205	118.344	404.278	0
20303.967	-57.976	479.897	120.090	408.396	0
20304.092	-52.196	484.589	121.634	412.988	0
20304.217	-46.417	489.281	123.000	418.030	0
20304.342	-40.637	493.973	124.208	423.499	0
20304.467	-34.857	498.665	125.293	429.284	0
20304.592	-29.078	503.358	126.429	435.185	0
20304.717	-22.858	506.906	128.102	440.060	0
20304.842	-16.121	510.222	130.389	444.840	0
20304.967	-9.385	513.537	132.785	449.755	0
20305.092	-2.649	516.852	135.308	454.790	0
20305.217	4.087	520.168	137.976	459.837	0
20305.342	10.823	523.483	140.802	464.793	0
20305.467	17.560	526.799	143.789	469.651	0
20305.592	24.296	530.114	146.938	474.405	0
20305.717	34.272	532.142	153.503	477.710	0
20305.842	44.014	534.281	160.072	480.927	0
20305.967	53.513	536.536	166.736	484.073	0
20306.092	57.259	541.047	167.992	489.281	0
20306.217	61.005	545.558	169.569	494.304	0
20306.342	64.751	550.069	171.478	499.130	0
20306.467	68.497	554.579	173.714	503.752	0
20306.592	69.457	559.933	173.497	509.004	0
20306.717	73.454	564.390	176.563	513.257	0
20306.842	77.150	568.845	179.559	517.457	0
20306.967	80.847	573.299	182.761	521.624	0
20307.092	84.394	577.909	185.977	525.974	0
20307.217	87.941	582.518	189.351	530.348	0
20307.342	91.488	587.128	192.875	534.744	0
20307.467	95.034	591.737	196.534	539.157	0
20307.592	101.176	595.839	202.914	543.078	0
20307.717	107.541	599.785	209.677	546.834	0
20307.842	114.058	603.627	216.722	550.490	0
20307.967	120.711	607.374	223.988	554.102	0
20308.092	127.533	611.004	231.422	557.706	0
20308.217	134.662	614.422	239.129	561.224	0
20308.342	137.627	619.337	242.625	566.366	0
20308.467	140.592	624.253	246.085	571.602	0
20308.592	143.557	629.168	249.499	576.932	0
20308.717	146.522	634.084	252.873	582.339	0
20308.842	149.487	638.999	256.216	587.804	0
20308.967	152.452	643.915	259.527	593.325	0
20309.092	155.417	648.830	262.832	598.893	0
20309.217	158.382	653.746	266.148	604.501	0
20309.342	160.828	659.045	268.956	610.528	0
20309.467	163.273	664.345	271.779	616.592	0
20309.592	165.719	669.644	274.615	622.694	0
20309.717	168.165	674.944	277.433	628.841	0
20309.842	170.610	680.243	280.228	635.026	0
20309.967	173.056	685.543	283.039	641.233	0
20310.092	175.502	690.842	285.895	647.452	0
20310.217	177.947	696.141	288.802	653.678	0
20310.342	180.891	700.599	292.261	659.065	0
20310.467	183.812	705.044	295.748	664.432	0
20310.592	186.713	709.480	299.273	669.769	0
20310.717	189.592	713.903	302.846	675.057	0
20310.842	191.678	720.671	305.701	682.644	0
20310.967	194.041	726.678	308.959	689.420	0
20311.092	195.367	732.247	311.293	695.707	0
20311.217	197.379	737.487	314.416	701.625	0
20311.342	199.960	742.530	318.202	707.305	0
20311.467	202.049	748.300	321.589	713.670	0
20311.592	204.074	754.132	325.013	720.061	0
20311.717	205.684	760.358	328.114	726.803	0
20311.842	206.756	766.965	330.775	733.883	0
20311.967	210.774	771.002	336.486	738.350	0
20312.092	215.202	774.975	342.681	742.709	0
20312.217	216.053	780.059	345.380	748.131	0
20312.342	216.903	785.142	348.163	753.520	0
20312.467	217.754	790.225	351.033	758.878	0
20312.592	218.604	795.308	353.968	764.189	0
20312.717	219.455	800.391	356.972	769.461	0
20312.842	220.305	805.474	360.045	774.700	0
20312.967	221.156	810.557	363.187	779.911	0
20313.092	222.006	815.641	366.398	785.098	0
20313.217	221.582	821.162	368.403	790.704	0
20313.342	221.157	826.684	370.475	796.294	0
20313.467	220.732	832.205	372.563	801.857	0
20313.592	220.308	837.727	374.660	807.391	0
20313.717	219.883	843.249	376.751	812.892	0
20313.842	219.459	848.770	378.835	818.356	0
20313.967	219.034	854.292	380.914	823.784	0
20314.092	218.610	859.813	382.995	829.179	0
20314.217	218.185	865.335	385.051	834.534	0
20314.342	218.914	871.788	388.179	840.773	0
20314.467	219.642	878.241	391.225	846.954	0
20314.592	220.371	884.695	394.192	853.078	0
20314.717	221.104	891.151	397.085	859.165	0
20314.842	221.867	897.631	399.932	865.239	0
20314.967	222.599	904.087	402.661	871.249	0
20315.092	223.335	910.546	405.296	877.217	0
20315.217	224.071	917.005	407.835	883.138	0
20315.342	224.870	923.513	410.344	889.060	0
20315.467	225.668	930.020	412.759	894.936	0
20315.592	226.467	936.528	415.083	900.763	0
20315.717	229.048	943.011	419.141	906.536	0
20315.842	231.628	949.494	423.162	912.285	0
20315.967	234.209	955.977	427.134	918.010	0
20316.092	236.789	962.461	431.049	923.710	0
20316.217	239.370	968.944	434.898	929.387	0
20316.342	241.951	975.427	438.688	935.065	0
20316.467	244.856	981.906	442.757	940.770	0
20316.592	247.761	988.385	446.769	946.507	0
20316.717	250.588	994.775	450.650	952.173	0
20316.842	253.415	1001.165	454.471	957.852	0
20316.967	256.242	1007.554	458.215	963.543	0
20317.092	259.069	1013.944	461.936	969.283	0
20317.217	261.897	1020.334	465.637	975.065	0
20317.342	264.724	1026.724	469.311	980.885	0
20317.467	267.402	1032.991	472.802	986.611	0
20317.592	270.156	1039.358	476.327	992.457	0
20317.717	272.947	1045.773	479.835	998.404	0
20317.842	275.766	1052.225	483.333	1004.480	0
20317.967	278.618	1058.721	486.820	1010.695	0
20318.092	281.535	1065.302	490.318	1017.093	0
20318.217	284.773	1072.307	494.079	1024.012	0
20318.342	291.583	1078.652	501.345	1030.377	0
20318.467	297.245	1085.209	507.343	1037.084	0
20318.592	301.781	1092.310	512.129	1044.456	0
20318.717	305.925	1099.184	516.454	1051.719	0
20318.842	309.950	1105.965	520.604	1059.005	0
20318.967	314.675	1112.664	525.400	1066.312	0
20319.092	319.682	1119.367	530.432	1073.703	0
20319.217	326.218	1126.117	536.968	1081.188	0
20319.342	330.172	1132.830	540.911	1088.671	0
20319.467	332.910	1139.464	543.664	1096.093	0
20319.592	336.053	1146.053	546.865	1103.485	0
20319.717	339.247	1152.574	550.166	1110.793	0
20319.842	342.667	1158.909	553.760	1117.838	0
20319.967	346.127	1165.218	557.472	1124.782	0
20320.092	349.595	1171.526	561.283	1131.649	0
20320.217	353.071	1177.829	565.202	1138.438	0
20320.342	356.718	1184.056	569.405	1145.078	0
20320.467	360.569	1190.209	573.921	1151.551	0
20320.592	364.298	1196.311	578.419	1157.870	0
20320.717	367.080	1201.978	582.081	1163.644	0
20320.842	370.361	1208.190	586.332	1169.871	0
20320.967	373.643	1214.403	590.681	1176.008	0
20321.092	375.351	1223.526	593.556	1184.976	0
20321.217	377.677	1230.602	597.111	1191.803	0
20321.342	379.749	1237.635	600.454	1198.521	0
20321.467	382.715	1244.277	604.729	1204.791	0
20321.592	385.755	1251.041	609.123	1211.144	0
20321.717	386.811	1259.873	611.574	1219.539	0
20321.842	388.874	1266.958	614.998	1226.157	0
20321.967	390.938	1274.043	618.394	1232.763	0
20322.092	394.765	1279.461	623.521	1237.695	0
20322.217	398.650	1284.637	628.693	1242.402	0
20322.342	402.496	1289.671	633.808	1246.992	0
20322.467	406.336	1294.644	638.893	1251.543	0
20322.592	410.185	1299.568	643.947	1256.063	0
20322.717	414.055	1304.437	648.998	1260.560	0
20322.842	417.974	1309.215	654.079	1264.996	0
20322.967	422.019	1313.767	659.273	1269.239	0
20323.092	423.144	1323.136	661.544	1278.331	0
20323.217	424.704	1332.256	664.175	1287.150	0
20323.342	427.368	1340.320	667.743	1294.902	0
20323.467	430.104	1347.431	671.247	1301.707	0
20323.592	433.010	1354.165	674.799	1308.144	0
20323.717	435.700	1362.417	678.033	1316.101	0
20323.842	438.271	1370.777	680.959	1324.156	0
20323.967	440.043	1379.517	682.840	1332.575	0
20324.092	440.547	1389.093	683.187	1341.816	0
20324.217	446.709	1395.547	688.886	1347.896	0
20324.342	452.883	1401.819	694.456	1353.938	0
20324.467	459.065	1407.991	699.932	1360.002	0
20324.592	465.483	1413.701	705.547	1365.716	0
20324.717	472.169	1418.958	711.322	1371.112	0
20324.842	478.798	1424.309	716.938	1376.747	0
20324.967	485.265	1429.453	722.309	1382.297	0
20325.092	491.302	1434.094	727.246	1387.448	0
20325.217	497.577	1438.829	732.503	1392.780	0
20325.342	503.831	1443.485	737.826	1398.108	0
20325.467	509.752	1448.336	742.900	1403.687	0
20325.592	515.355	1453.059	747.732	1409.165	0
20325.717	520.918	1457.731	752.586	1414.565	0
20325.842	526.534	1462.398	757.577	1419.874	0
20325.967	531.646	1467.172	762.159	1425.202	0
20326.092	535.903	1472.219	766.021	1430.714	0
20326.217	540.156	1477.400	770.011	1436.259	0
20326.342	544.652	1484.145	774.373	1443.255	0
20326.467	549.074	1490.314	778.810	1449.521	0
20326.592	553.470	1496.376	783.354	1455.529	0
20326.717	557.889	1502.892	788.035	1461.802	0
20326.842	562.310	1509.407	792.844	1467.903	0
20326.967	566.739	1515.921	797.788	1473.856	0
20327.092	571.244	1522.418	802.928	1479.655	0
20327.217	575.748	1528.915	808.182	1485.327	0
20327.342	580.229	1534.351	813.518	1489.819	0
20327.467	584.710	1539.786	818.945	1494.217	0
20327.592	589.191	1545.221	824.481	1498.535	0
20327.717	594.250	1551.537	830.727	1503.793	0
20327.842	599.510	1558.186	837.310	1509.510	0
20327.967	604.435	1564.281	843.690	1514.818	0
20328.092	609.157	1570.204	849.987	1520.111	0
20328.217	614.847	1574.096	857.340	1523.546	0
20328.342	619.550	1580.953	863.725	1530.178	0
20328.467	624.253	1587.809	870.110	1537.048	0
20328.592	628.955	1594.666	876.486	1544.182	0
20328.717	631.958	1600.814	881.078	1550.730	0
20328.842	635.089	1606.517	885.717	1556.900	0
20328.967	638.500	1611.827	890.497	1562.751	0
20329.092	642.151	1616.868	895.338	1568.410	0
20329.217	645.868	1621.818	900.073	1574.060	0
20329.342	649.634	1626.692	904.696	1579.715	0
20329.467	654.231	1631.132	909.997	1585.022	0
20329.592	658.615	1635.639	914.937	1590.485	0
20329.717	663.252	1639.593	920.012	1595.550	0
20329.842	668.814	1642.844	925.916	1600.041	0
20329.967	674.378	1646.041	931.757	1604.485	0
20330.092	679.072	1649.115	936.675	1608.799	0
20330.217	684.104	1652.312	941.895	1613.229	0
20330.342	689.214	1655.667	947.163	1617.799	0
20330.467	694.368	1658.612	952.453	1621.923	0
20330.592	699.536	1661.556	957.748	1626.003	0
20330.717	704.638	1664.521	962.982	1630.026	0
20330.842	709.788	1668.157	968.285	1634.657	0
20330.967	714.919	1672.131	973.590	1639.562	0
20331.092	720.020	1676.730	978.889	1645.025	0
20331.217	725.050	1681.494	984.166	1650.568	0
20331.342	729.894	1686.102	989.311	1655.867	0
20331.467	735.002	1691.470	994.777	1661.844	0
20331.592	740.116	1696.850	1000.307	1667.746	0
20331.717	745.217	1702.230	1005.891	1673.546	0
20331.842	750.629	1707.631	1011.858	1679.258	0
20331.967	755.899	1712.999	1017.757	1684.823	0
20332.092	759.290	1718.863	1021.822	1690.764	0
20332.217	762.353	1724.896	1025.594	1696.764	0
20332.342	765.132	1731.020	1029.117	1702.747	0
20332.467	768.067	1737.228	1032.829	1708.705	0
20332.592	771.254	1743.515	1036.830	1714.624	0
20332.717	774.858	1750.114	1041.216	1720.700	0
20332.842	778.309	1756.664	1045.350	1726.530	0
20332.967	781.588	1763.109	1049.221	1732.053	0
20333.092	784.537	1769.445	1052.677	1737.277	0
20333.217	786.923	1775.738	1055.486	1742.277	0
20333.342	791.823	1783.181	1060.727	1748.258	0
20333.467	796.775	1790.689	1065.939	1754.135	0
20333.592	804.956	1795.369	1074.297	1757.030	0
20333.717	812.378	1800.719	1081.875	1760.572	0
20333.842	819.757	1806.114	1089.366	1764.232	0
20333.967	827.740	1812.074	1097.378	1768.638	0
20334.092	836.446	1818.685	1106.025	1773.896	0
20334.217	845.236	1824.827	1114.695	1778.928	0
20334.342	853.591	1830.836	1122.861	1784.077	0
20334.467	860.253	1836.349	1129.264	1788.971	0
20334.592	868.737	1841.107	1137.425	1793.307	0
20334.717	875.858	1846.824	1144.180	1798.736	0
20334.842	879.982	1852.921	1147.918	1804.623	0
20334.967	883.508	1858.763	1151.124	1810.289	0
20335.092	886.678	1864.491	1154.046	1815.860	0
20335.217	889.684	1870.207	1156.880	1821.396	0
20335.342	892.671	1875.985	1159.774	1826.950	0
20335.467	895.959	1881.949	1163.043	1832.649	0
20335.592	897.069	1887.289	1164.224	1837.671	0
20335.717	898.381	1892.823	1165.703	1842.865	0
20335.842	899.913	1898.553	1167.501	1848.240	0
20335.967	901.934	1904.694	1169.895	1854.012	0
20336.092	904.384	1911.243	1172.837	1860.174	0
20336.217	906.841	1917.942	1175.918	1866.463	0
20336.342	909.318	1925.037	1179.115	1873.107	0
20336.467	912.698	1932.299	1183.288	1879.857	0
20336.592	916.079	1939.561	1187.549	1886.545	0
20336.717	919.459	1946.823	1191.888	1893.174	0
20336.842	922.840	1954.085	1196.310	1899.748	0
20336.967	929.197	1960.761	1203.675	1905.680	0
20337.092	932.216	1967.642	1207.631	1911.752	0
20337.217	935.363	1974.643	1211.626	1917.920	0
20337.342	940.210	1981.922	1217.222	1924.355	0
20337.467	943.396	1989.255	1221.044	1930.853	0
20337.592	946.583	1996.588	1224.695	1937.442	0
20337.717	949.769	2003.921	1228.148	1944.133	0
20337.842	952.956	2011.254	1231.389	1950.938	0
20337.967	958.488	2014.985	1236.751	1954.266	0
20338.092	964.229	2018.647	1242.145	1957.635	0
20338.217	970.138	2022.253	1247.552	1961.099	0
20338.342	974.051	2028.618	1250.835	1967.471	0
20338.467	977.765	2035.198	1253.812	1974.211	0
20338.592	981.641	2041.261	1256.850	1980.580	0
20338.717	985.720	2046.961	1260.009	1986.708	0
20338.842	990.096	2052.344	1263.397	1992.625	0
20338.967	994.754	2057.969	1267.032	1998.862	0
20339.092	999.044	2063.878	1270.315	2005.428	0
20339.217	1002.339	2070.467	1272.665	2012.679	0
20339.342	1005.650	2077.016	1275.120	2019.873	0
20339.467	1009.470	2082.267	1278.182	2025.738	0
20339.592	1011.837	2087.155	1279.881	2031.194	0
20339.717	1014.650	2091.793	1282.076	2036.354	0
20339.842	1017.532	2096.394	1284.376	2041.418	0
20339.967	1020.420	2100.991	1286.725	2046.414	0
20340.092	1023.310	2105.587	1289.123	2051.340	0
20340.217	1026.215	2110.174	1291.587	2056.186	0
20340.342	1029.044	2114.804	1294.030	2060.998	0
20340.467	1031.709	2119.525	1296.369	2065.821	0
20340.592	1035.674	2125.835	1300.048	2072.148	0
20340.717	1039.638	2132.145	1303.744	2078.341	0
20340.842	1043.602	2138.455	1307.451	2084.416	0
20340.967	1047.567	2144.764	1311.162	2090.381	0
20341.092	1051.531	2151.074	1314.867	2096.252	0
20341.217	1055.495	2157.384	1318.559	2102.042	0
20341.342	1059.460	2163.694	1322.213	2107.790	0
20341.467	1063.424	2170.004	1325.817	2113.511	0
20341.592	1067.389	2176.313	1329.369	2119.218	0
20341.717	1071.353	2182.623	1332.844	2124.933	0
20341.842	1075.317	2188.933	1336.228	2130.684	0
20341.967	1079.282	2195.243	1339.568	2136.498	0
20342.092	1083.246	2201.552	1342.907	2142.364	0
20342.217	1087.210	2207.862	1346.248	2148.274	0
20342.342	1091.175	2214.172	1349.597	2154.225	0
20342.467	1095.139	2220.482	1352.958	2160.210	0
20342.592	1099.103	2226.792	1356.352	2166.223	0
20342.717	1103.068	2233.101	1359.813	2172.229	0
20342.842	1107.032	2239.411	1363.333	2178.218	0
20342.967	1110.996	2245.721	1366.905	2184.184	0
20343.092	1114.961	2252.031	1370.542	2190.113	0
20343.217	1118.925	2258.341	1374.236	2196.005	0
20343.342	1122.889	2264.650	1377.908	2201.896	0
20343.467	1126.854	2270.960	1381.541	2207.785	0
20343.592	1130.818	2277.270	1385.117	2213.672	0
20343.717	1134.783	2283.580	1388.672	2219.561	0
20343.842	1138.747	2289.890	1392.215	2225.454	0
20343.967	1142.711	2296.199	1395.681	2231.391	0
20344.092	1146.676	2302.509	1399.039	2237.383	0
20344.217	1150.640	2308.819	1402.282	2243.454	0
20344.342	1154.604	2315.129	1405.404	2249.621	0
20344.467	1158.569	2321.439	1408.398	2255.891	0
20344.592	1162.533	2327.748	1411.268	2262.276	0
20344.717	1166.497	2334.058	1413.982	2268.767	0
20344.842	1170.462	2340.368	1416.520	2275.352	0
20344.967	1174.426	2346.678	1418.878	2282.020	0
20345.092	1178.390	2352.987	1421.051	2288.762	0
20345.217	1182.355	2359.297	1423.063	2295.561	0
20345.342	1186.319	2365.607	1425.011	2302.379	0
20345.467	1190.284	2371.917	1426.937	2309.180	0
20345.592	1194.248	2378.227	1428.842	2315.931	0
20345.717	1198.212	2384.536	1430.787	2322.630	0
20345.842	1202.177	2390.846	1432.805	2329.268	0
20345.967	1206.141	2397.156	1435.023	2335.819	0
20346.092	1210.105	2403.466	1437.454	2342.267	0
20346.217	1214.070	2409.776	1440.107	2348.597	0
20346.342	1218.034	2416.085	1442.987	2354.800	0
20346.467	1221.998	2422.395	1446.106	2360.860	0
20346.592	1225.963	2428.705	1449.482	2366.823	0
20346.717	1229.927	2435.015	1453.078	2372.685	0
20346.842	1233.891	2441.325	1456.876	2378.442	0
20346.967	1237.856	2447.634	1460.865	2384.101	0
20347.092	1241.820	2453.944	1465.036	2389.670	0
20347.217	1245.785	2460.254	1469.342	2395.176	0
20347.342	1249.749	2466.564	1473.745	2400.642	0
20347.467	1253.713	2472.874	1478.238	2406.078	0
20347.592	1257.678	2479.183	1482.811	2411.489	0
20347.717	1261.642	2485.493	1487.452	2416.899	0
20347.842	1265.606	2491.803	1492.142	2422.327	0
20347.967	1269.571	2498.113	1496.861	2427.777	0
20348.092	1273.535	2504.422	1501.606	2433.249	0
20348.217	1277.499	2510.732	1506.374	2438.744	0
20348.342	1281.464	2517.042	1511.162	2444.265	0
20348.467	1285.428	2523.352	1515.967	2449.815	0
20348.592	1289.392	2529.662	1520.772	2455.416	0
20348.717	1293.357	2535.971	1525.558	2461.063	0
20348.842	1297.321	2542.281	1530.308	2466.753	0
20348.967	1301.286	2548.591	1535.008	2472.469	0
20349.092	1305.250	2554.901	1539.653	2478.216	0
20349.217	1309.214	2561.211	1544.247	2484.031	0
20349.342	1313.179	2567.520	1548.782	2489.912	0
20349.467	1317.143	2573.830	1553.251	2495.857	0
20349.592	1321.107	2580.140	1557.644	2501.867	0
20349.717	1325.072	2586.450	1561.957	2507.935	0
20349.842	1329.036	2592.760	1566.213	2514.074	0
20349.967	1333.000	2599.069	1570.409	2520.283	0
20350.092	1336.965	2605.379	1574.553	2526.553	0
20350.217	1340.929	2611.689	1578.653	2532.881	0
20350.342	1344.893	2617.999	1582.712	2539.263	0
20350.467	1348.858	2624.309	1586.773	2545.677	0
